# RELION postprocess; version 4.0-beta-2
# --mask mask.mrc --i output/_iter9_half1.mrc --i2 output/_iter9_half2.mrc --o output/_postprocess_iter9/iter9 --angpix 1.059 --auto_bfac --autob_lowres 10 

# version 30001

data_general

_rlnFinalResolution                               3.227429
_rlnBfactorUsedForSharpening                     -34.89441
_rlnUnfilteredMapHalf1                        output/_iter9_half1.mrc
_rlnUnfilteredMapHalf2                        output/_iter9_half2.mrc
_rlnPostprocessedMap                          output/_postprocess_iter9/iter9.mrc
_rlnParticleBoxFractionSolventMask               20.686732
_rlnMaskName                                  mask.mrc
_rlnRandomiseFrom                                10.590000
_rlnPostprocessedMapMasked                    output/_postprocess_iter9/iter9_masked.mrc
_rlnFittedSlopeGuinierPlot                        -8.72360
_rlnFittedInterceptGuinierPlot                   -13.50697
_rlnCorrelationFitGuinierPlot                     0.845397
 

# version 30001

data_fsc

loop_ 
_rlnSpectralIndex #1 
_rlnResolution #2 
_rlnAngstromResolution #3 
_rlnFourierShellCorrelationCorrected #4 
_rlnFourierShellCorrelationParticleMaskFraction #5 
_rlnFourierShellCorrelationUnmaskedMaps #6 
_rlnFourierShellCorrelationMaskedMaps #7 
_rlnCorrectedFourierShellCorrelationPhaseRandomizedMaskedMaps #8 
           0     0.001001   999.000000     1.000000     1.000000     1.000000     1.000000     1.000000 
           1     0.002951   338.880005     0.999999     0.999944     0.998838     0.999999     1.000000 
           2     0.005902   169.440002     0.999997     0.999989     0.999768     0.999997     0.999998 
           3     0.008853   112.960002     0.999958     0.999781     0.995499     0.999958     0.999969 
           4     0.011804    84.720001     0.999922     0.999915     0.998242     0.999922     0.999915 
           5     0.014754    67.776001     0.999835     0.999903     0.997992     0.999835     0.999839 
           6     0.017705    56.480001     0.999814     0.999772     0.995313     0.999814     0.999804 
           7     0.020656    48.411429     0.999741     0.999660     0.993015     0.999741     0.999739 
           8     0.023607    42.360001     0.999668     0.999661     0.993044     0.999668     0.999677 
           9     0.026558    37.653334     0.999656     0.999630     0.992409     0.999656     0.999658 
          10     0.029509    33.888000     0.999411     0.999215     0.984004     0.999411     0.999424 
          11     0.032460    30.807273     0.999195     0.999439     0.988516     0.999195     0.999222 
          12     0.035411    28.240000     0.999183     0.999340     0.986514     0.999183     0.999194 
          13     0.038362    26.067693     0.999140     0.999195     0.983606     0.999140     0.999099 
          14     0.041313    24.205715     0.998989     0.998726     0.974297     0.998989     0.998919 
          15     0.044263    22.592000     0.998282     0.998096     0.962042     0.998282     0.998196 
          16     0.047214    21.180000     0.997325     0.997262     0.946255     0.997325     0.997318 
          17     0.050165    19.934118     0.996159     0.995731     0.918527     0.996159     0.996220 
          18     0.053116    18.826667     0.995249     0.993960     0.888325     0.995249     0.995228 
          19     0.056067    17.835790     0.995091     0.994398     0.895632     0.995091     0.994773 
          20     0.059018    16.944000     0.993703     0.992708     0.868083     0.993703     0.993036 
          21     0.061969    16.137143     0.993339     0.992009     0.857156     0.993339     0.992537 
          22     0.064920    15.403637     0.993778     0.991193     0.844739     0.993778     0.992969 
          23     0.067871    14.733913     0.993145     0.988990     0.812815     0.993145     0.992206 
          24     0.070822    14.120000     0.992742     0.990202     0.830087     0.992742     0.991953 
          25     0.073772    13.555200     0.992484     0.991499     0.849350     0.992484     0.991894 
          26     0.076723    13.033846     0.992839     0.993081     0.874033     0.992839     0.992352 
          27     0.079674    12.551111     0.992925     0.992635     0.866928     0.992925     0.992174 
          28     0.082625    12.102857     0.992229     0.991365     0.847323     0.992229     0.990560 
          29     0.085576    11.685517     0.991067     0.989834     0.824763     0.991067     0.987918 
          30     0.088527    11.296000     0.990230     0.989512     0.820161     0.990230     0.985263 
          31     0.091478    10.931613     0.988592     0.989138     0.814889     0.988592     0.976450 
          32     0.094429    10.590000     0.987161     0.987694     0.795077     0.987161     0.941401 
          33     0.097380    10.269091     0.986792     0.986849     0.783900     0.986792     0.826276 
          34     0.100330     9.967059     0.956750     0.987013     0.786044     0.987760     0.716982 
          35     0.103281     9.682286     0.957354     0.985861     0.771197     0.985888     0.669089 
          36     0.106232     9.413333     0.957013     0.983026     0.736806     0.982100     0.583599 
          37     0.109183     9.158919     0.954672     0.980649     0.710120     0.977482     0.503229 
          38     0.112134     8.917895     0.951426     0.977968     0.682110     0.973428     0.452964 
          39     0.115085     8.689231     0.949360     0.972092     0.627396     0.971000     0.427334 
          40     0.118036     8.472000     0.945653     0.969283     0.604025     0.968500     0.420384 
          41     0.120987     8.265366     0.936993     0.963749     0.562389     0.964970     0.444025 
          42     0.123938     8.068572     0.929348     0.959882     0.536306     0.958373     0.410815 
          43     0.126889     7.880930     0.922545     0.949877     0.478102     0.949787     0.351720 
          44     0.129839     7.701818     0.913954     0.940769     0.434321     0.943533     0.343766 
          45     0.132790     7.530667     0.908020     0.933579     0.404566     0.937422     0.319661 
          46     0.135741     7.366957     0.892921     0.912027     0.333844     0.923675     0.287212 
          47     0.138692     7.210213     0.876533     0.910054     0.328453     0.912230     0.289121 
          48     0.141643     7.060000     0.862940     0.906304     0.318608     0.900959     0.277389 
          49     0.144594     6.915918     0.863868     0.903168     0.310761     0.897224     0.245024 
          50     0.147545     6.777600     0.867512     0.904551     0.314181     0.896319     0.217434 
          51     0.150496     6.644706     0.859673     0.885537     0.272188     0.889174     0.210233 
          52     0.153447     6.516923     0.842231     0.878330     0.258692     0.874928     0.207250 
          53     0.156398     6.393962     0.831857     0.861552     0.231253     0.864507     0.194178 
          54     0.159348     6.275556     0.832547     0.854652     0.221331     0.859121     0.158694 
          55     0.162299     6.161455     0.831224     0.864065     0.235049     0.852747     0.127525 
          56     0.165250     6.051429     0.832460     0.860890     0.230270     0.852418     0.119122 
          57     0.168201     5.945263     0.828703     0.846941     0.211038     0.848932     0.118096 
          58     0.171152     5.842759     0.827055     0.861475     0.231139     0.845283     0.105397 
          59     0.174103     5.743729     0.825408     0.859925     0.228848     0.840730     0.087760 
          60     0.177054     5.648000     0.830956     0.855448     0.222439     0.843887     0.076493 
          61     0.180005     5.555410     0.833307     0.847945     0.212334     0.844240     0.065585 
          62     0.182956     5.465807     0.835832     0.863442     0.234098     0.843658     0.047669 
          63     0.185907     5.379048     0.847180     0.875290     0.253331     0.851559     0.028659 
          64     0.188857     5.295000     0.861424     0.880401     0.262452     0.864403     0.021504 
          65     0.191808     5.213539     0.865255     0.881126     0.263792     0.868612     0.024910 
          66     0.194759     5.134546     0.868779     0.882992     0.267289     0.871942     0.024100 
          67     0.197710     5.057911     0.871077     0.897598     0.297617     0.874623     0.027506 
          68     0.200661     4.983529     0.868788     0.892797     0.287029     0.872662     0.029526 
          69     0.203612     4.911304     0.872652     0.895003     0.291813     0.877691     0.039567 
          70     0.206563     4.841143     0.876434     0.896223     0.294517     0.881112     0.037863 
          71     0.209514     4.772958     0.874178     0.899150     0.301181     0.877688     0.027891 
          72     0.212465     4.706667     0.864976     0.895661     0.293265     0.868567     0.026598 
          73     0.215415     4.642192     0.854767     0.887337     0.275745     0.858422     0.025166 
          74     0.218366     4.579460     0.852092     0.874422     0.251834     0.855204     0.021036 
          75     0.221317     4.518400     0.848691     0.880067     0.261840     0.851468     0.018354 
          76     0.224268     4.458947     0.839042     0.860679     0.229957     0.841985     0.018283 
          77     0.227219     4.401039     0.823112     0.840614     0.203156     0.825155     0.011552 
          78     0.230170     4.344615     0.801185     0.845404     0.209077     0.803058     0.009419 
          79     0.233121     4.289620     0.782754     0.827434     0.188171     0.786195     0.015839 
          80     0.236072     4.236000     0.765181     0.813870     0.174490     0.768555     0.014367 
          81     0.239023     4.183704     0.747949     0.786566     0.151210     0.753014     0.020096 
          82     0.241974     4.132683     0.738198     0.773060     0.141386     0.743282     0.019420 
          83     0.244924     4.082892     0.721051     0.766528     0.136971     0.724916     0.013857 
          84     0.247875     4.034286     0.686290     0.753438     0.128705     0.688760     0.007875 
          85     0.250826     3.986824     0.654115     0.726288     0.113687     0.656039     0.005562 
          86     0.253777     3.940465     0.628748     0.726009     0.113546     0.630472     0.004644 
          87     0.256728     3.895172     0.608333     0.693486     0.098587     0.607155     -0.00301 
          88     0.259679     3.850909     0.590505     0.704033     0.103130     0.589737     -0.00188 
          89     0.262630     3.807641     0.565521     0.668200     0.088714     0.570856     0.012280 
          90     0.265581     3.765333     0.541345     0.664055     0.087219     0.549347     0.017445 
          91     0.268532     3.723956     0.508246     0.650171     0.082436     0.512865     0.009393 
          92     0.271483     3.683478     0.476150     0.631282     0.076437     0.478157     0.003832 
          93     0.274433     3.643871     0.449566     0.563578     0.058757     0.452616     0.005540 
          94     0.277384     3.605106     0.420856     0.611904     0.070819     0.428226     0.012725 
          95     0.280335     3.567158     0.390116     0.594888     0.066280     0.391197     0.001773 
          96     0.283286     3.530000     0.354402     0.546264     0.054997     0.349046     -0.00830 
          97     0.286237     3.493608     0.329420     0.575413     0.061484     0.326096     -0.00496 
          98     0.289188     3.457959     0.309898     0.514586     0.048747     0.314906     0.007258 
          99     0.292139     3.423030     0.288411     0.448428     0.037814     0.293058     0.006531 
         100     0.295090     3.388800     0.260846     0.548524     0.055473     0.265233     0.005935 
         101     0.298041     3.355248     0.241149     0.516791     0.049158     0.242459     0.001727 
         102     0.300991     3.322353     0.234754     0.401701     0.031436     0.232749     -0.00262 
         103     0.303942     3.290097     0.213151     0.503058     0.046652     0.207718     -0.00690 
         104     0.306893     3.258462     0.180800     0.428512     0.034978     0.178984     -0.00222 
         105     0.309844     3.227429     0.149947     0.529918     0.051677     0.152314     0.002784 
         106     0.312795     3.196981     0.140506     0.412322     0.032803     0.143921     0.003973 
         107     0.315746     3.167103     0.141845     0.462318     0.039906     0.149242     0.008619 
         108     0.318697     3.137778     0.140060     0.423366     0.034275     0.146116     0.007042 
         109     0.321648     3.108991     0.141550     0.478349     0.042446     0.139326     -0.00259 
         110     0.324599     3.080727     0.141777     0.397610     0.030921     0.137150     -0.00539 
         111     0.327550     3.052973     0.126898     0.415316     0.033197     0.118171     -0.01000 
         112     0.330500     3.025714     0.109211     0.485820     0.043679     0.106730     -0.00279 
         113     0.333451     2.998938     0.106159     0.464026     0.040170     0.107331     0.001311 
         114     0.336402     2.972632     0.095174     0.438659     0.036400     0.100256     0.005616 
         115     0.339353     2.946783     0.090861     0.451057     0.038203     0.097472     0.007272 
         116     0.342304     2.921379     0.063864     0.387285     0.029649     0.074831     0.011716 
         117     0.345255     2.896410     0.051068     0.409278     0.032407     0.060282     0.009710 
         118     0.348206     2.871864     0.075378     0.435893     0.036008     0.073334     -0.00221 
         119     0.351157     2.847731     0.090689     0.412149     0.032781     0.083429     -0.00798 
         120     0.354108     2.824000     0.073315     0.446078     0.037470     0.074404     0.001175 
         121     0.357059     2.800661     0.061708     0.399865     0.031204     0.064574     0.003055 
         122     0.360009     2.777705     0.077521     0.378693     0.028621     0.070813     -0.00727 
         123     0.362960     2.755122     0.077578     0.322226     0.022465     0.067828     -0.01057 
         124     0.365911     2.732903     0.064945     0.442304     0.036923     0.055855     -0.00972 
         125     0.368862     2.711040     0.048595     0.349667     0.025333     0.035869     -0.01338 
         126     0.371813     2.689524     0.047931     0.375313     0.028223     0.035293     -0.01327 
         127     0.374764     2.668346     0.052833     0.387533     0.029679     0.048146     -0.00495 
         128     0.377715     2.647500     0.045636     0.308278     0.021089     0.048153     0.002637 
         129     0.380666     2.626977     0.032072     0.350707     0.025446     0.040879     0.009099 
         130     0.383617     2.606769     0.018590     0.458687     0.039350     0.032339     0.014009 
         131     0.386568     2.586870     0.022966     0.393780     0.030444     0.031545     0.008781 
         132     0.389518     2.567273     0.042858     0.401195     0.031371     0.045364     0.002618 
         133     0.392469     2.547970     0.048320     0.402227     0.031502     0.046029     -0.00241 
         134     0.395420     2.528955     0.041815     0.351051     0.025483     0.035603     -0.00648 
         135     0.398371     2.510222     0.042882     0.373655     0.028030     0.040236     -0.00276 
         136     0.401322     2.491765     0.036694     0.330658     0.023323     0.042690     0.006225 
         137     0.404273     2.473577     0.029060     0.418753     0.033654     0.032337     0.003375 
         138     0.407224     2.455652     0.025422     0.396183     0.030742     0.023677     -0.00179 
         139     0.410175     2.437986     0.033245     0.378671     0.028618     0.029730     -0.00364 
         140     0.413126     2.420571     0.025620     0.374115     0.028083     0.028009     0.002452 
         141     0.416076     2.403404     0.026647     0.269924     0.017559     0.026389 -2.65045e-04 
         142     0.419027     2.386479     0.035600     0.360800     0.026561     0.035860 2.696517e-04 
         143     0.421978     2.369790     0.060644     0.447364     0.037658     0.058575     -0.00220 
         144     0.424929     2.353333     0.075099     0.378881     0.028643     0.072119     -0.00322 
         145     0.427880     2.337103     0.060986     0.390539     0.030045     0.059105     -0.00200 
         146     0.430831     2.321096     0.053302     0.358159     0.026266     0.053614 3.297151e-04 
         147     0.433782     2.305306     0.060090     0.403310     0.031640     0.057625     -0.00262 
         148     0.436733     2.289730     0.054674     0.338918     0.024183     0.049772     -0.00519 
         149     0.439684     2.274362     0.042764     0.254617     0.016244     0.034778     -0.00834 
         150     0.442635     2.259200     0.030802     0.369411     0.027539     0.023455     -0.00758 
         151     0.445585     2.244238     0.032604     0.287709     0.019152     0.027092     -0.00570 
         152     0.448536     2.229474     0.038155     0.311464     0.021399     0.038419 2.750611e-04 
         153     0.451487     2.214902     0.055794     0.381266     0.028926     0.054792     -0.00106 
         154     0.454438     2.200520     0.055253     0.308807     0.021141     0.051276     -0.00421 
         155     0.457389     2.186323     0.047820     0.376359     0.028346     0.040481     -0.00771 
         156     0.460340     2.172308     0.050980     0.386625     0.029569     0.043878     -0.00748 
         157     0.463291     2.158471     0.059851     0.350274     0.025399     0.056342     -0.00373 
         158     0.466242     2.144810     0.051444     0.345052     0.024835     0.049996     -0.00153 
         159     0.469193     2.131321     0.048088     0.347931     0.025145     0.044259     -0.00402 
         160     0.472144     2.118000     0.048060     0.329884     0.023244     0.043851     -0.00442 
 

# version 30001

data_guinier

loop_ 
_rlnResolutionSquared #1 
_rlnLogAmplitudesOriginal #2 
_rlnLogAmplitudesWeighted #3 
_rlnLogAmplitudesSharpened #4 
_rlnLogAmplitudesIntercept #5 
    0.000000    -11.62161    -11.62161    -11.62161    -13.50697 
8.707793e-06     -9.04739     -9.04739     -9.04726    -13.50697 
3.483117e-05     -9.19602     -9.19602     -9.19565    -13.50697 
7.837014e-05    -10.33230    -10.33231    -10.33159    -13.50697 
1.393247e-04    -10.22523    -10.22525    -10.22396    -13.50697 
2.176948e-04    -10.43935    -10.43939    -10.43742    -13.50697 
3.134806e-04    -10.87956    -10.87961    -10.87674    -13.50697 
4.266819e-04    -11.19384    -11.19391    -11.19013    -13.50697 
5.572988e-04    -11.40649    -11.40658    -11.40170    -13.50697 
7.053313e-04    -11.50735    -11.50744    -11.50121    -13.50697 
8.707793e-04    -11.85225    -11.85240    -11.84469    -13.50697 
    0.001054    -11.93386    -11.93407    -11.92474    -13.50697 
    0.001254    -11.95368    -11.95389    -11.94289    -13.50697 
    0.001472    -12.15501    -12.15523    -12.14234    -13.50697 
    0.001707    -12.31012    -12.31037    -12.29536    -13.50697 
    0.001959    -12.41922    -12.41965    -12.40253    -13.50697 
    0.002229    -12.52483    -12.52550    -12.50606    -13.50697 
    0.002517    -12.70227    -12.70323    -12.68125    -13.50697 
    0.002821    -12.86135    -12.86254    -12.83779    -13.50697 
    0.003144    -12.84668    -12.84791    -12.82038    -13.50697 
    0.003483    -12.97919    -12.98077    -12.95036    -13.50697 
    0.003840    -13.08248    -13.08416    -13.05058    -13.50697 
    0.004215    -13.07040    -13.07196    -13.03508    -13.50697 
    0.004606    -13.05660    -13.05832    -13.01805    -13.50697 
    0.005016    -13.02424    -13.02607    -12.98226    -13.50697 
    0.005442    -12.99807    -12.99995    -12.95240    -13.50697 
    0.005886    -12.97974    -12.98154    -12.93007    -13.50697 
    0.006348    -12.97241    -12.97419    -12.91870    -13.50697 
    0.006827    -12.99786    -12.99981    -12.94015    -13.50697 
    0.007323    -13.07200    -13.07424    -13.01025    -13.50697 
    0.007837    -13.10073    -13.10319    -13.03472    -13.50697 
    0.008368    -13.14584    -13.14871    -13.07563    -13.50697 
    0.008917    -13.15594    -13.15918    -13.08132    -13.50697 
    0.009483    -13.15579    -13.15912    -13.07634    -13.50697 
    0.010066    -13.13724    -13.14841    -13.06050    -13.50697 
    0.010667    -13.17681    -13.18782    -13.09467    -13.50697 
    0.011285    -13.24781    -13.25892    -13.16041    -13.50697 
    0.011921    -13.30388    -13.31561    -13.21150    -13.50697 
    0.012574    -13.39035    -13.40295    -13.29318    -13.50697 
    0.013245    -13.46445    -13.47761    -13.36203    -13.50697 
    0.013932    -13.49951    -13.51367    -13.39210    -13.50697 
    0.014638    -13.53400    -13.55053    -13.42278    -13.50697 
    0.015361    -13.57874    -13.59739    -13.46332    -13.50697 
    0.016101    -13.65437    -13.67493    -13.53437    -13.50697 
    0.016858    -13.69855    -13.72155    -13.57439    -13.50697 
    0.017633    -13.73288    -13.75758    -13.60365    -13.50697 
    0.018426    -13.77937    -13.80849    -13.64766    -13.50697 
    0.019236    -13.79690    -13.83093    -13.66310    -13.50697 
    0.020063    -13.80366    -13.84187    -13.66683    -13.50697 
    0.020907    -13.81282    -13.85074    -13.66828    -13.50697 
    0.021769    -13.81422    -13.85101    -13.66097    -13.50697 
    0.022649    -13.85260    -13.89183    -13.69413    -13.50697 
    0.023546    -13.86198    -13.90675    -13.70127    -13.50697 
    0.024460    -13.86764    -13.91578    -13.70224    -13.50697 
    0.025392    -13.85462    -13.90253    -13.68082    -13.50697 
    0.026341    -13.83015    -13.87850    -13.64862    -13.50697 
    0.027308    -13.84384    -13.89178    -13.65353    -13.50697 
    0.028292    -13.85230    -13.90148    -13.65460    -13.50697 
    0.029293    -13.84969    -13.89941    -13.64376    -13.50697 
    0.030312    -13.84945    -13.89971    -13.63516    -13.50697 
    0.031348    -13.82709    -13.87553    -13.60195    -13.50697 
    0.032402    -13.81490    -13.86257    -13.57977    -13.50697 
    0.033473    -13.79252    -13.83936    -13.54720    -13.50697 
    0.034561    -13.77843    -13.82161    -13.52004    -13.50697 
    0.035667    -13.75881    -13.79749    -13.48633    -13.50697 
    0.036790    -13.73389    -13.77138    -13.45036    -13.50697 
    0.037931    -13.71486    -13.75127    -13.42020    -13.50697 
    0.039089    -13.69364    -13.72933    -13.38816    -13.50697 
    0.040265    -13.68147    -13.71787    -13.36650    -13.50697 
    0.041458    -13.68160    -13.71682    -13.35501    -13.50697 
    0.042668    -13.67311    -13.70717    -13.33475    -13.50697 
    0.043896    -13.67045    -13.70519    -13.32218    -13.50697 
    0.045141    -13.66654    -13.70412    -13.31025    -13.50697 
    0.046404    -13.66428    -13.70505    -13.30015    -13.50697 
    0.047684    -13.67834    -13.71995    -13.30386    -13.50697 
    0.048981    -13.70043    -13.74313    -13.31575    -13.50697 
    0.050296    -13.72219    -13.76799    -13.32906    -13.50697 
    0.051629    -13.69548    -13.74651    -13.29598    -13.50697 
    0.052978    -13.72848    -13.78696    -13.32471    -13.50697 
    0.054345    -13.74251    -13.80748    -13.33334    -13.50697 
    0.055730    -13.74930    -13.82068    -13.33447    -13.50697 
    0.057132    -13.76175    -13.83960    -13.34114    -13.50697 
    0.058551    -13.77170    -13.85332    -13.34244    -13.50697 
    0.059988    -13.78089    -13.86931    -13.34588    -13.50697 
    0.061442    -13.77978    -13.88270    -13.34662    -13.50697 
    0.062914    -13.79333    -13.91062    -13.36167    -13.50697 
    0.064403    -13.80234    -13.93168    -13.36969    -13.50697 
    0.065909    -13.80004    -13.93959    -13.36448    -13.50697 
    0.067433    -13.78540    -13.93424    -13.34586    -13.50697 
    0.068974    -13.79673    -13.95927    -13.35750    -13.50697 
    0.070533    -13.79421    -13.97082    -13.35536    -13.50697 
    0.072109    -13.78679    -13.98409    -13.35483    -13.50697 
    0.073703    -13.79023    -14.00939    -13.36626    -13.50697 
    0.075314    -13.80016    -14.03895    -13.38177    -13.50697 
    0.076942    -13.79438    -14.05616    -13.38482    -13.50697 
    0.078588    -13.80309    -14.09186    -13.40625    -13.50697 
    0.080251    -13.80645    -14.13022    -13.43019    -13.50697 
    0.081932    -13.81348    -14.16449    -13.44976    -13.50697 
    0.083630    -13.82174    -14.19589    -13.46618    -13.50697 
    0.085345    -13.83160    -14.23342    -13.48873    -13.50697 
    0.087078    -13.83211    -14.27334    -13.51358    -13.50697 
    0.088828    -13.82442    -14.29703    -13.52200    -13.50697 
    0.090596    -13.83672    -14.32019    -13.52974    -13.50697 
    0.092381    -13.83126    -14.35417    -13.54812    -13.50697 
    0.094183    -13.82882    -14.42053    -13.59881    -13.50697 
    0.096003    -13.82842    -14.50044    -13.66282    -13.50697 
    0.097841    -13.84229    -14.54270    -13.68900    -13.50697 
    0.099696    -13.83324    -14.52950    -13.65968    -13.50697 
    0.101568    -13.84085    -14.54265    -13.65655    -13.50697 
    0.103457    -13.83416    -14.53133    -13.62868    -13.50697 
    0.105364    -13.83752    -14.53399    -13.61464    -13.50697 
    0.107289    -13.84300    -14.58834    -13.65225    -13.50697 
    0.109231    -13.83504    -14.64753    -13.69458    -13.50697 
    0.111190    -13.83618    -14.66146    -13.69145    -13.50697 
    0.113166    -13.83338    -14.70828    -13.72095    -13.50697 
    0.115161    -13.83076    -14.72688    -13.72215    -13.50697 
    0.117172    -13.83846    -14.89835    -13.87612    -13.50697 
    0.119201    -13.83097    -14.99660    -13.95657    -13.50697 
    0.121247    -13.83138    -14.81376    -13.75590    -13.50697 
    0.123311    -13.83302    -14.73001    -13.65422    -13.50697 
    0.125392    -13.82792    -14.82322    -13.72929    -13.50697 
    0.127491    -13.83171    -14.90775    -13.79550    -13.50697 
    0.129607    -13.83375    -14.80311    -13.67233    -13.50697 
    0.131740    -13.83177    -14.80080    -13.65140    -13.50697 
    0.133891    -13.82630    -14.87830    -13.71020    -13.50697 
    0.136059    -13.83379    -15.02306    -13.83599    -13.50697 
    0.138245    -13.82730    -15.02314    -13.81694    -13.50697 
    0.140448    -13.82638    -14.97586    -13.75056    -13.50697 
    0.142668    -13.83167    -15.05094    -13.80631    -13.50697 
    0.144906    -13.82902    -15.21811    -13.95388    -13.50697 
    0.147162    -13.81448    -15.46967    -14.18573    -13.50697 
    0.149434    -13.82600    -15.37766    -14.07394    -13.50697 
    0.151725    -13.81976    -15.06910    -13.74538    -13.50697 
    0.154032    -13.82177    -15.01374    -13.66986    -13.50697 
    0.156357    -13.82285    -15.08401    -13.71986    -13.50697 
    0.158700    -13.81952    -15.06859    -13.68406    -13.50697 
    0.161059    -13.81979    -15.14381    -13.73873    -13.50697 
    0.163437    -13.81060    -15.24755    -13.82159    -13.50697 
    0.165831    -13.81613    -15.31817    -13.87128    -13.50697 
    0.168243    -13.81648    -15.18818    -13.72035    -13.50697 
    0.170673    -13.81949    -15.31777    -13.82878    -13.50697 
    0.173120    -13.82004    -15.29915    -13.78880    -13.50697 
    0.175584    -13.81569    -15.15432    -13.62243    -13.50697 
    0.178066    -13.80650    -14.89073    -13.33723    -13.50697 
    0.180565    -13.81177    -14.79587    -13.22068    -13.50697 
    0.183081    -13.81085    -14.89243    -13.29530    -13.50697 
    0.185615    -13.81178    -14.95706    -13.33772    -13.50697 
    0.188167    -13.81165    -14.90021    -13.25859    -13.50697 
    0.190736    -13.81565    -14.94888    -13.28480    -13.50697 
    0.193322    -13.81736    -15.06775    -13.38110    -13.50697 
    0.195925    -13.81029    -15.21898    -13.50958    -13.50697 
    0.198546    -13.81465    -15.19578    -13.46355    -13.50697 
    0.201185    -13.80854    -15.11374    -13.35854    -13.50697 
    0.203841    -13.80965    -14.93327    -13.15491    -13.50697 
    0.206514    -13.81290    -14.94113    -13.13939    -13.50697 
    0.209205    -13.80966    -15.00660    -13.18143    -13.50697 
    0.211913    -13.80937    -14.97581    -13.12703    -13.50697 
    0.214638    -13.81055    -14.90098    -13.02840    -13.50697 
    0.217381    -13.79204    -14.95418    -13.05762    -13.50697 
    0.220142    -13.69171    -14.88599    -12.96474    -13.50697 
    0.222920    -13.50499    -14.69954    -13.36122    -13.50697 
 
