# RELION postprocess; version 4.0-beta-2
# --mask mask.mrc --i output/_iter1_half1.mrc --i2 output/_iter1_half2.mrc --o output/_postprocess_iter1/iter1 --angpix 1.059 --auto_bfac --autob_lowres 10 

# version 30001

data_general

_rlnFinalResolution                               2.972632
_rlnBfactorUsedForSharpening                     -39.57840
_rlnUnfilteredMapHalf1                        output/_iter1_half1.mrc
_rlnUnfilteredMapHalf2                        output/_iter1_half2.mrc
_rlnPostprocessedMap                          output/_postprocess_iter1/iter1.mrc
_rlnParticleBoxFractionSolventMask               20.686732
_rlnMaskName                                  mask.mrc
_rlnRandomiseFrom                                 7.880930
_rlnPostprocessedMapMasked                    output/_postprocess_iter1/iter1_masked.mrc
_rlnFittedSlopeGuinierPlot                        -9.89460
_rlnFittedInterceptGuinierPlot                   -13.95874
_rlnCorrelationFitGuinierPlot                     0.854477
 

# version 30001

data_fsc

loop_ 
_rlnSpectralIndex #1 
_rlnResolution #2 
_rlnAngstromResolution #3 
_rlnFourierShellCorrelationCorrected #4 
_rlnFourierShellCorrelationParticleMaskFraction #5 
_rlnFourierShellCorrelationUnmaskedMaps #6 
_rlnFourierShellCorrelationMaskedMaps #7 
_rlnCorrectedFourierShellCorrelationPhaseRandomizedMaskedMaps #8 
           0     0.001001   999.000000     1.000000     1.000000     1.000000     1.000000     1.000000 
           1     0.002951   338.880005     0.999999     0.999986     0.999716     0.999999     0.999999 
           2     0.005902   169.440002     0.999991     0.999995     0.999901     0.999991     0.999991 
           3     0.008853   112.960002     0.999937     0.999976     0.999499     0.999937     0.999939 
           4     0.011804    84.720001     0.999951     0.999981     0.999604     0.999951     0.999956 
           5     0.014754    67.776001     0.999986     0.999981     0.999614     0.999986     0.999988 
           6     0.017705    56.480001     0.999971     0.999948     0.998917     0.999971     0.999971 
           7     0.020656    48.411429     0.999916     0.999945     0.998862     0.999916     0.999917 
           8     0.023607    42.360001     0.999846     0.999934     0.998626     0.999846     0.999847 
           9     0.026558    37.653334     0.999873     0.999917     0.998284     0.999873     0.999874 
          10     0.029509    33.888000     0.999880     0.999849     0.996891     0.999880     0.999882 
          11     0.032460    30.807273     0.999850     0.999898     0.997902     0.999850     0.999843 
          12     0.035411    28.240000     0.999831     0.999892     0.997770     0.999831     0.999825 
          13     0.038362    26.067693     0.999789     0.999840     0.996697     0.999789     0.999781 
          14     0.041313    24.205715     0.999705     0.999744     0.994724     0.999705     0.999697 
          15     0.044263    22.592000     0.999541     0.999570     0.991183     0.999541     0.999528 
          16     0.047214    21.180000     0.999260     0.999463     0.989004     0.999260     0.999246 
          17     0.050165    19.934118     0.998970     0.999077     0.981252     0.998970     0.998977 
          18     0.053116    18.826667     0.998686     0.998753     0.974818     0.998686     0.998669 
          19     0.056067    17.835790     0.998498     0.998827     0.976280     0.998498     0.998501 
          20     0.059018    16.944000     0.998130     0.998429     0.968473     0.998130     0.998110 
          21     0.061969    16.137143     0.997885     0.998080     0.961726     0.997885     0.997850 
          22     0.064920    15.403637     0.997787     0.998028     0.960729     0.997787     0.997785 
          23     0.067871    14.733913     0.997700     0.997838     0.957103     0.997700     0.997772 
          24     0.070822    14.120000     0.997981     0.997946     0.959166     0.997981     0.998063 
          25     0.073772    13.555200     0.998011     0.998057     0.961296     0.998011     0.998080 
          26     0.076723    13.033846     0.997994     0.998292     0.965822     0.997994     0.998045 
          27     0.079674    12.551111     0.998101     0.998330     0.966545     0.998101     0.998156 
          28     0.082625    12.102857     0.997913     0.998218     0.964384     0.997913     0.997973 
          29     0.085576    11.685517     0.997519     0.998000     0.960191     0.997519     0.997548 
          30     0.088527    11.296000     0.997313     0.997729     0.955025     0.997313     0.997366 
          31     0.091478    10.931613     0.997053     0.997518     0.951049     0.997053     0.997122 
          32     0.094429    10.590000     0.996719     0.997214     0.945370     0.996719     0.996778 
          33     0.097380    10.269091     0.996714     0.997098     0.943205     0.996714     0.996764 
          34     0.100330     9.967059     0.996592     0.997227     0.945606     0.996592     0.996718 
          35     0.103281     9.682286     0.996342     0.996806     0.937833     0.996342     0.996429 
          36     0.106232     9.413333     0.995918     0.996281     0.928322     0.995918     0.996026 
          37     0.109183     9.158919     0.994751     0.995379     0.912377     0.994751     0.994839 
          38     0.112134     8.917895     0.992817     0.994460     0.896667     0.992817     0.992700 
          39     0.115085     8.689231     0.990890     0.993068     0.873812     0.990890     0.990418 
          40     0.118036     8.472000     0.989613     0.991978     0.856689     0.989613     0.988522 
          41     0.120987     8.265366     0.988560     0.990806     0.838954     0.988560     0.985544 
          42     0.123938     8.068572     0.987321     0.989321     0.817465     0.987321     0.977732 
          43     0.126889     7.880930     0.984595     0.987138     0.787692     0.984595     0.948899 
          44     0.129839     7.701818     0.981633     0.983638     0.743993     0.981633     0.860109 
          45     0.132790     7.530667     0.923113     0.982046     0.725589     0.979177     0.729172 
          46     0.135741     7.366957     0.928146     0.977047     0.672954     0.975039     0.652612 
          47     0.138692     7.210213     0.933676     0.975666     0.659656     0.972524     0.585738 
          48     0.141643     7.060000     0.933101     0.973883     0.643183     0.968153     0.523947 
          49     0.144594     6.915918     0.932114     0.972143     0.627836     0.965197     0.487336 
          50     0.147545     6.777600     0.928345     0.971397     0.621458     0.961508     0.462812 
          51     0.150496     6.644706     0.918996     0.965307     0.573564     0.954979     0.444217 
          52     0.153447     6.516923     0.906017     0.961302     0.545622     0.948510     0.452139 
          53     0.156398     6.393962     0.905435     0.960660     0.541379     0.946785     0.437264 
          54     0.159348     6.275556     0.905991     0.953802     0.499508     0.943615     0.400217 
          55     0.162299     6.161455     0.908021     0.953163     0.495906     0.941363     0.362492 
          56     0.165250     6.051429     0.912649     0.955697     0.510470     0.940765     0.321875 
          57     0.168201     5.945263     0.913893     0.956535     0.515462     0.938080     0.280893 
          58     0.171152     5.842759     0.907900     0.951349     0.485930     0.933067     0.273259 
          59     0.174103     5.743729     0.904152     0.951322     0.485786     0.929769     0.267266 
          60     0.177054     5.648000     0.908248     0.953268     0.496493     0.930601     0.243624 
          61     0.180005     5.555410     0.916051     0.950646     0.482164     0.933824     0.211707 
          62     0.182956     5.465807     0.922524     0.951826     0.488519     0.936806     0.184342 
          63     0.185907     5.379048     0.926101     0.956264     0.513837     0.938571     0.168744 
          64     0.188857     5.295000     0.932201     0.958859     0.529778     0.942402     0.150459 
          65     0.191808     5.213539     0.933985     0.961182     0.544823     0.942549     0.129724 
          66     0.194759     5.134546     0.937803     0.963520     0.560784     0.944933     0.114626 
          67     0.197710     5.057911     0.940865     0.965010     0.571404     0.947080     0.105095 
          68     0.200661     4.983529     0.943058     0.964963     0.571060     0.947789     0.083096 
          69     0.203612     4.911304     0.944167     0.964643     0.568755     0.948553     0.078570 
          70     0.206563     4.841143     0.944101     0.963998     0.564150     0.948800     0.084069 
          71     0.209514     4.772958     0.941768     0.965373     0.574047     0.946504     0.081318 
          72     0.212465     4.706667     0.936084     0.960937     0.543202     0.940590     0.070489 
          73     0.215415     4.642192     0.931237     0.958706     0.528809     0.935023     0.055052 
          74     0.218366     4.579460     0.928316     0.956222     0.513586     0.932123     0.053101 
          75     0.221317     4.518400     0.925895     0.956130     0.513041     0.930788     0.066026 
          76     0.224268     4.458947     0.923268     0.949777     0.477579     0.927791     0.058939 
          77     0.227219     4.401039     0.915589     0.941985     0.439745     0.920421     0.057238 
          78     0.230170     4.344615     0.904712     0.937638     0.420901     0.909881     0.054248 
          79     0.233121     4.289620     0.891390     0.927625     0.382554     0.896511     0.047145 
          80     0.236072     4.236000     0.877587     0.923543     0.368652     0.882336     0.038798 
          81     0.239023     4.183704     0.865270     0.910008     0.328328     0.870119     0.035991 
          82     0.241974     4.132683     0.852816     0.904963     0.315212     0.858756     0.040361 
          83     0.244924     4.082892     0.836880     0.896625     0.295418     0.843867     0.042834 
          84     0.247875     4.034286     0.823857     0.878971     0.259846     0.830310     0.036638 
          85     0.250826     3.986824     0.803999     0.864305     0.235417     0.812932     0.045577 
          86     0.253777     3.940465     0.787594     0.857426     0.225235     0.795332     0.036430 
          87     0.256728     3.895172     0.765731     0.843215     0.206338     0.772276     0.027936 
          88     0.259679     3.850909     0.751397     0.824598     0.185174     0.755498     0.016498 
          89     0.262630     3.807641     0.733365     0.815383     0.175937     0.734644     0.004797 
          90     0.265581     3.765333     0.709269     0.796643     0.159219     0.711060     0.006162 
          91     0.268532     3.723956     0.680561     0.792429     0.155794     0.682286     0.005401 
          92     0.271483     3.683478     0.656841     0.781501     0.147410     0.661278     0.012930 
          93     0.274433     3.643871     0.621166     0.738069     0.119883     0.629223     0.021267 
          94     0.277384     3.605106     0.586450     0.744672     0.123565     0.598907     0.030122 
          95     0.280335     3.567158     0.555313     0.752307     0.128025     0.568519     0.029696 
          96     0.283286     3.530000     0.521388     0.722664     0.111870     0.535476     0.029435 
          97     0.286237     3.493608     0.494242     0.705588     0.103824     0.505403     0.022068 
          98     0.289188     3.457959     0.467099     0.684661     0.094986     0.476531     0.017699 
          99     0.292139     3.423030     0.443837     0.662757     0.086757     0.448410     0.008221 
         100     0.295090     3.388800     0.421691     0.684139     0.094779     0.419200     -0.00431 
         101     0.298041     3.355248     0.395497     0.654934     0.084039     0.391278     -0.00698 
         102     0.300991     3.322353     0.371719     0.628059     0.075467     0.373746     0.003227 
         103     0.303942     3.290097     0.330316     0.616979     0.072242     0.340607     0.015367 
         104     0.306893     3.258462     0.300027     0.618508     0.072677     0.308404     0.011967 
         105     0.309844     3.227429     0.276293     0.642355     0.079886     0.280115     0.005281 
         106     0.312795     3.196981     0.261576     0.583138     0.063339     0.260113     -0.00198 
         107     0.315746     3.167103     0.238422     0.634054     0.077283     0.235797     -0.00345 
         108     0.318697     3.137778     0.220200     0.604257     0.068737     0.220070 -1.65765e-04 
         109     0.321648     3.108991     0.210351     0.591705     0.065469     0.214273     0.004966 
         110     0.324599     3.080727     0.183207     0.555133     0.056890     0.187927     0.005779 
         111     0.327550     3.052973     0.153580     0.544764     0.054684     0.158053     0.005285 
         112     0.330500     3.025714     0.152226     0.554634     0.056782     0.161488     0.010925 
         113     0.333451     2.998938     0.159031     0.575045     0.061397     0.175384     0.019446 
         114     0.336402     2.972632     0.155794     0.586805     0.064241     0.172772     0.020111 
         115     0.339353     2.946783     0.137000     0.588010     0.064540     0.153394     0.018996 
         116     0.342304     2.921379     0.120520     0.531318     0.051953     0.135701     0.017261 
         117     0.345255     2.896410     0.098529     0.519109     0.049594     0.118118     0.021730 
         118     0.348206     2.871864     0.099761     0.577728     0.062034     0.116723     0.018841 
         119     0.351157     2.847731     0.100851     0.545894     0.054920     0.110959     0.011241 
         120     0.354108     2.824000     0.103451     0.566241     0.059359     0.110464     0.007821 
         121     0.357059     2.800661     0.081834     0.526259     0.050962     0.084254     0.002636 
         122     0.360009     2.777705     0.074470     0.461163     0.039728     0.070895     -0.00386 
         123     0.362960     2.755122     0.093282     0.543690     0.054460     0.085219     -0.00889 
         124     0.365911     2.732903     0.102424     0.499920     0.046097     0.094450     -0.00888 
         125     0.368862     2.711040     0.086010     0.510742     0.048039     0.084219     -0.00196 
         126     0.371813     2.689524     0.084846     0.503192     0.046676     0.089129     0.004681 
         127     0.374764     2.668346     0.090030     0.546885     0.055128     0.095068     0.005537 
         128     0.377715     2.647500     0.085346     0.585468     0.063910     0.088010     0.002913 
         129     0.380666     2.626977     0.082502     0.549779     0.055739     0.081638 -9.41294e-04 
         130     0.383617     2.606769     0.082972     0.589838     0.064998     0.077435     -0.00604 
         131     0.386568     2.586870     0.085272     0.543979     0.054520     0.079766     -0.00602 
         132     0.389518     2.567273     0.074900     0.513863     0.048613     0.076310     0.001524 
         133     0.392469     2.547970     0.066954     0.560763     0.058127     0.076545     0.010279 
         134     0.395420     2.528955     0.065891     0.564885     0.059051     0.079292     0.014346 
         135     0.398371     2.510222     0.076697     0.550835     0.055964     0.086750     0.010889 
         136     0.401322     2.491765     0.076374     0.502222     0.046504     0.083826     0.008068 
         137     0.404273     2.473577     0.073019     0.539086     0.053513     0.078346     0.005747 
         138     0.407224     2.455652     0.069845     0.572172     0.060724     0.072946     0.003334 
         139     0.410175     2.437986     0.072685     0.532885     0.052264     0.071362     -0.00143 
         140     0.413126     2.420571     0.063555     0.472994     0.041582     0.068060     0.004811 
         141     0.416076     2.403404     0.067070     0.515487     0.048915     0.072554     0.005879 
         142     0.419027     2.386479     0.077525     0.492322     0.044779     0.080268     0.002974 
         143     0.421978     2.369790     0.090260     0.498634     0.045871     0.085430     -0.00531 
         144     0.424929     2.353333     0.095029     0.455526     0.038871     0.078804     -0.01793 
         145     0.427880     2.337103     0.094111     0.522729     0.050282     0.077703     -0.01811 
         146     0.430831     2.321096     0.081525     0.512285     0.048322     0.082462     0.001020 
         147     0.433782     2.305306     0.072144     0.547676     0.055294     0.082471     0.011129 
         148     0.436733     2.289730     0.065752     0.477983     0.042386     0.072472     0.007193 
         149     0.439684     2.274362     0.061468     0.445305     0.037357     0.063666     0.002343 
         150     0.442635     2.259200     0.060703     0.507422     0.047435     0.063186     0.002643 
         151     0.445585     2.244238     0.073563     0.497205     0.045622     0.074912     0.001456 
         152     0.448536     2.229474     0.075818     0.484253     0.043418     0.076237 4.540295e-04 
         153     0.451487     2.214902     0.076603     0.459981     0.039547     0.078152     0.001677 
         154     0.454438     2.200520     0.076858     0.472627     0.041523     0.080014     0.003418 
         155     0.457389     2.186323     0.071338     0.492729     0.044848     0.073806     0.002658 
         156     0.460340     2.172308     0.056561     0.501420     0.046362     0.061970     0.005733 
         157     0.463291     2.158471     0.072236     0.476799     0.042194     0.077428     0.005596 
         158     0.466242     2.144810     0.087056     0.519918     0.049747     0.086957 -1.08532e-04 
         159     0.469193     2.131321     0.084368     0.488807     0.044181     0.082982     -0.00151 
         160     0.472144     2.118000     0.074837     0.455403     0.038853     0.078629     0.004099 
 

# version 30001

data_guinier

loop_ 
_rlnResolutionSquared #1 
_rlnLogAmplitudesOriginal #2 
_rlnLogAmplitudesWeighted #3 
_rlnLogAmplitudesSharpened #4 
_rlnLogAmplitudesIntercept #5 
    0.000000    -11.32712    -11.32712    -11.32712    -13.95874 
8.707793e-06     -9.08217     -9.08217     -9.08203    -13.95874 
3.483117e-05     -9.20659     -9.20660     -9.20618    -13.95874 
7.837014e-05    -10.34051    -10.34053    -10.33972    -13.95874 
1.393247e-04    -10.25832    -10.25834    -10.25687    -13.95874 
2.176948e-04    -10.46811    -10.46811    -10.46587    -13.95874 
3.134806e-04    -10.89680    -10.89681    -10.89356    -13.95874 
4.266819e-04    -11.22392    -11.22394    -11.21965    -13.95874 
5.572988e-04    -11.43628    -11.43632    -11.43079    -13.95874 
7.053313e-04    -11.54825    -11.54828    -11.54123    -13.95874 
8.707793e-04    -11.89179    -11.89182    -11.88307    -13.95874 
    0.001054    -11.95620    -11.95623    -11.94566    -13.95874 
    0.001254    -11.99098    -11.99102    -11.97856    -13.95874 
    0.001472    -12.20990    -12.20995    -12.19533    -13.95874 
    0.001707    -12.36222    -12.36229    -12.34526    -13.95874 
    0.001959    -12.46840    -12.46852    -12.44910    -13.95874 
    0.002229    -12.59194    -12.59212    -12.57008    -13.95874 
    0.002517    -12.78395    -12.78421    -12.75927    -13.95874 
    0.002821    -12.93654    -12.93687    -12.90880    -13.95874 
    0.003144    -12.92643    -12.92681    -12.89559    -13.95874 
    0.003483    -13.06982    -13.07029    -13.03580    -13.95874 
    0.003840    -13.20755    -13.20808    -13.17000    -13.95874 
    0.004215    -13.19526    -13.19582    -13.15398    -13.95874 
    0.004606    -13.18125    -13.18182    -13.13616    -13.95874 
    0.005016    -13.15236    -13.15287    -13.10319    -13.95874 
    0.005442    -13.11487    -13.11536    -13.06143    -13.95874 
    0.005886    -13.09611    -13.09661    -13.03823    -13.95874 
    0.006348    -13.09275    -13.09323    -13.03029    -13.95874 
    0.006827    -13.12230    -13.12283    -13.05515    -13.95874 
    0.007323    -13.19581    -13.19643    -13.12384    -13.95874 
    0.007837    -13.23089    -13.23156    -13.15391    -13.95874 
    0.008368    -13.27625    -13.27698    -13.19410    -13.95874 
    0.008917    -13.30095    -13.30177    -13.21347    -13.95874 
    0.009483    -13.29609    -13.29691    -13.20301    -13.95874 
    0.010066    -13.28039    -13.28125    -13.18153    -13.95874 
    0.010667    -13.34010    -13.34102    -13.23535    -13.95874 
    0.011285    -13.41820    -13.41922    -13.30750    -13.95874 
    0.011921    -13.50300    -13.50432    -13.38628    -13.95874 
    0.012574    -13.61280    -13.61460    -13.49010    -13.95874 
    0.013245    -13.69983    -13.70212    -13.57104    -13.95874 
    0.013932    -13.74162    -13.74423    -13.60632    -13.95874 
    0.014638    -13.80270    -13.80558    -13.66068    -13.95874 
    0.015361    -13.87005    -13.87325    -13.72120    -13.95874 
    0.016101    -13.96889    -13.97279    -13.81340    -13.95874 
    0.016858    -14.04551    -14.05017    -13.88327    -13.95874 
    0.017633    -14.08574    -14.10614    -13.93156    -13.95874 
    0.018426    -14.18072    -14.19971    -14.01731    -13.95874 
    0.019236    -14.20875    -14.22620    -14.03582    -13.95874 
    0.020063    -14.24816    -14.26577    -14.06724    -13.95874 
    0.020907    -14.25130    -14.26919    -14.06223    -13.95874 
    0.021769    -14.27391    -14.29284    -14.07730    -13.95874 
    0.022649    -14.32157    -14.34313    -14.11892    -13.95874 
    0.023546    -14.35328    -14.37856    -14.14547    -13.95874 
    0.024460    -14.35552    -14.38097    -14.13875    -13.95874 
    0.025392    -14.36657    -14.39186    -14.14043    -13.95874 
    0.026341    -14.38221    -14.40692    -14.14616    -13.95874 
    0.027308    -14.36947    -14.39284    -14.12262    -13.95874 
    0.028292    -14.37729    -14.40031    -14.12027    -13.95874 
    0.029293    -14.40046    -14.42520    -14.13522    -13.95874 
    0.030312    -14.38987    -14.41569    -14.11565    -13.95874 
    0.031348    -14.36596    -14.39060    -14.08027    -13.95874 
    0.032402    -14.36074    -14.38314    -14.06235    -13.95874 
    0.033473    -14.33897    -14.35954    -14.02813    -13.95874 
    0.034561    -14.31757    -14.33713    -13.99505    -13.95874 
    0.035667    -14.27790    -14.29576    -13.94284    -13.95874 
    0.036790    -14.23950    -14.25687    -13.89274    -13.95874 
    0.037931    -14.22249    -14.23880    -13.86333    -13.95874 
    0.039089    -14.20761    -14.22308    -13.83611    -13.95874 
    0.040265    -14.19846    -14.21333    -13.81474    -13.95874 
    0.041458    -14.18591    -14.20048    -13.79009    -13.95874 
    0.042668    -14.18923    -14.20382    -13.78143    -13.95874 
    0.043896    -14.17848    -14.19371    -13.75928    -13.95874 
    0.045141    -14.19520    -14.21199    -13.76529    -13.95874 
    0.046404    -14.20566    -14.22379    -13.76454    -13.95874 
    0.047684    -14.22283    -14.24177    -13.76983    -13.95874 
    0.048981    -14.24547    -14.26509    -13.78035    -13.95874 
    0.050296    -14.27894    -14.29929    -13.80150    -13.95874 
    0.051629    -14.29945    -14.32198    -13.81099    -13.95874 
    0.052978    -14.34069    -14.36635    -13.84205    -13.95874 
    0.054345    -14.38248    -14.41205    -13.87427    -13.95874 
    0.055730    -14.40656    -14.44027    -13.88881    -13.95874 
    0.057132    -14.43579    -14.47328    -13.90793    -13.95874 
    0.058551    -14.45290    -14.49429    -13.91481    -13.95874 
    0.059988    -14.47164    -14.51813    -13.92446    -13.95874 
    0.061442    -14.50516    -14.55594    -13.94792    -13.95874 
    0.062914    -14.52863    -14.58614    -13.96354    -13.95874 
    0.064403    -14.54277    -14.60602    -13.96861    -13.95874 
    0.065909    -14.56863    -14.63980    -13.98752    -13.95874 
    0.067433    -14.55934    -14.63589    -13.96859    -13.95874 
    0.068974    -14.56850    -14.65202    -13.96944    -13.95874 
    0.070533    -14.58347    -14.67669    -13.97862    -13.95874 
    0.072109    -14.58499    -14.69040    -13.97668    -13.95874 
    0.073703    -14.59047    -14.70651    -13.97706    -13.95874 
    0.075314    -14.60933    -14.74240    -13.99705    -13.95874 
    0.076942    -14.61043    -14.76144    -13.99998    -13.95874 
    0.078588    -14.61702    -14.78540    -14.00779    -13.95874 
    0.080251    -14.63262    -14.82149    -14.02749    -13.95874 
    0.081932    -14.64256    -14.84916    -14.03846    -13.95874 
    0.083630    -14.65894    -14.88461    -14.05697    -13.95874 
    0.085345    -14.66867    -14.91189    -14.06724    -13.95874 
    0.087078    -14.66968    -14.93077    -14.06904    -13.95874 
    0.088828    -14.67806    -14.96192    -14.08285    -13.95874 
    0.090596    -14.68353    -14.98980    -14.09322    -13.95874 
    0.092381    -14.68287    -15.03285    -14.11857    -13.95874 
    0.094183    -14.67843    -15.06499    -14.13298    -13.95874 
    0.096003    -14.68340    -15.10195    -14.15190    -13.95874 
    0.097841    -14.69883    -15.13895    -14.17063    -13.95874 
    0.099696    -14.68704    -15.16424    -14.17765    -13.95874 
    0.101568    -14.69498    -15.20452    -14.19946    -13.95874 
    0.103457    -14.69404    -15.22241    -14.19858    -13.95874 
    0.105364    -14.69437    -15.28048    -14.23772    -13.95874 
    0.107289    -14.69962    -15.36125    -14.29953    -13.95874 
    0.109231    -14.69799    -15.36345    -14.28259    -13.95874 
    0.111190    -14.69452    -15.34107    -14.24081    -13.95874 
    0.113166    -14.69167    -15.34710    -14.22720    -13.95874 
    0.115161    -14.68939    -15.40090    -14.26130    -13.95874 
    0.117172    -14.69781    -15.46611    -14.30668    -13.95874 
    0.119201    -14.69552    -15.55464    -14.37502    -13.95874 
    0.121247    -14.68663    -15.54009    -14.34016    -13.95874 
    0.123311    -14.69275    -15.54128    -14.32107    -13.95874 
    0.125392    -14.69359    -15.53056    -14.28980    -13.95874 
    0.127491    -14.69221    -15.63650    -14.37492    -13.95874 
    0.129607    -14.69740    -15.68541    -14.40285    -13.95874 
    0.131740    -14.68853    -15.57262    -14.26889    -13.95874 
    0.133891    -14.69238    -15.53388    -14.20897    -13.95874 
    0.136059    -14.69040    -15.61173    -14.26526    -13.95874 
    0.138245    -14.69234    -15.61995    -14.25183    -13.95874 
    0.140448    -14.68624    -15.58658    -14.19681    -13.95874 
    0.142668    -14.67929    -15.60418    -14.19244    -13.95874 
    0.144906    -14.68083    -15.62136    -14.18742    -13.95874 
    0.147162    -14.67413    -15.61204    -14.15576    -13.95874 
    0.149434    -14.67875    -15.60405    -14.12535    -13.95874 
    0.151725    -14.67903    -15.66437    -14.16297    -13.95874 
    0.154032    -14.68202    -15.71972    -14.19545    -13.95874 
    0.156357    -14.67637    -15.72157    -14.17430    -13.95874 
    0.158700    -14.67586    -15.65018    -14.07982    -13.95874 
    0.161059    -14.68080    -15.65709    -14.06336    -13.95874 
    0.163437    -14.67254    -15.66972    -14.05237    -13.95874 
    0.165831    -14.67215    -15.69007    -14.04896    -13.95874 
    0.168243    -14.67390    -15.67322    -14.00842    -13.95874 
    0.170673    -14.67667    -15.73883    -14.04998    -13.95874 
    0.173120    -14.67490    -15.71179    -13.99871    -13.95874 
    0.175584    -14.68034    -15.64968    -13.91218    -13.95874 
    0.178066    -14.67427    -15.57344    -13.81141    -13.95874 
    0.180565    -14.67888    -15.55449    -13.76785    -13.95874 
    0.183081    -14.67540    -15.55544    -13.74387    -13.95874 
    0.185615    -14.67563    -15.62167    -13.78495    -13.95874 
    0.188167    -14.66979    -15.67259    -13.81060    -13.95874 
    0.190736    -14.67826    -15.72446    -13.83704    -13.95874 
    0.193322    -14.67805    -15.75593    -13.84286    -13.95874 
    0.195925    -14.67160    -15.75537    -13.81651    -13.95874 
    0.198546    -14.67289    -15.66662    -13.70183    -13.95874 
    0.201185    -14.67523    -15.65491    -13.66408    -13.95874 
    0.203841    -14.67994    -15.65483    -13.63780    -13.95874 
    0.206514    -14.67686    -15.65021    -13.60661    -13.95874 
    0.209205    -14.67395    -15.68200    -13.61184    -13.95874 
    0.211913    -14.66870    -15.78585    -13.68892    -13.95874 
    0.214638    -14.66725    -15.66946    -13.54555    -13.95874 
    0.217381    -14.64878    -15.56455    -13.41338    -13.95874 
    0.220142    -14.55681    -15.48702    -13.30791    -13.95874 
    0.222920    -14.35985    -15.34558    -13.75072    -13.95874 
 
