# RELION postprocess; version 4.0-beta-2
# --mask mask.mrc --i output/_iter0_half1.mrc --i2 output/_iter0_half2.mrc --o output/_postprocess_iter0/iter0 --angpix 1.059 --auto_bfac --autob_lowres 10 

# version 30001

data_general

_rlnFinalResolution                               3.052973
_rlnBfactorUsedForSharpening                     -41.10115
_rlnUnfilteredMapHalf1                        output/_iter0_half1.mrc
_rlnUnfilteredMapHalf2                        output/_iter0_half2.mrc
_rlnPostprocessedMap                          output/_postprocess_iter0/iter0.mrc
_rlnParticleBoxFractionSolventMask               20.686732
_rlnMaskName                                  mask.mrc
_rlnRandomiseFrom                                 7.701818
_rlnPostprocessedMapMasked                    output/_postprocess_iter0/iter0_masked.mrc
_rlnFittedSlopeGuinierPlot                       -10.27529
_rlnFittedInterceptGuinierPlot                   -14.04985
_rlnCorrelationFitGuinierPlot                     0.841708
 

# version 30001

data_fsc

loop_ 
_rlnSpectralIndex #1 
_rlnResolution #2 
_rlnAngstromResolution #3 
_rlnFourierShellCorrelationCorrected #4 
_rlnFourierShellCorrelationParticleMaskFraction #5 
_rlnFourierShellCorrelationUnmaskedMaps #6 
_rlnFourierShellCorrelationMaskedMaps #7 
_rlnCorrectedFourierShellCorrelationPhaseRandomizedMaskedMaps #8 
           0     0.001001   999.000000     1.000000     1.000000     1.000000     1.000000     1.000000 
           1     0.002951   338.880005     1.000000     0.999989     0.999763     1.000000     1.000000 
           2     0.005902   169.440002     0.999994     0.999996     0.999922     0.999994     0.999995 
           3     0.008853   112.960002     0.999948     0.999980     0.999581     0.999948     0.999951 
           4     0.011804    84.720001     0.999947     0.999986     0.999707     0.999947     0.999953 
           5     0.014754    67.776001     0.999983     0.999983     0.999645     0.999983     0.999985 
           6     0.017705    56.480001     0.999972     0.999958     0.999141     0.999972     0.999972 
           7     0.020656    48.411429     0.999931     0.999951     0.998978     0.999931     0.999934 
           8     0.023607    42.360001     0.999864     0.999950     0.998976     0.999864     0.999868 
           9     0.026558    37.653334     0.999886     0.999936     0.998677     0.999886     0.999890 
          10     0.029509    33.888000     0.999900     0.999883     0.997586     0.999900     0.999902 
          11     0.032460    30.807273     0.999875     0.999905     0.998030     0.999875     0.999869 
          12     0.035411    28.240000     0.999854     0.999902     0.997987     0.999854     0.999850 
          13     0.038362    26.067693     0.999818     0.999866     0.997237     0.999818     0.999815 
          14     0.041313    24.205715     0.999763     0.999779     0.995451     0.999763     0.999758 
          15     0.044263    22.592000     0.999640     0.999641     0.992624     0.999640     0.999632 
          16     0.047214    21.180000     0.999343     0.999548     0.990730     0.999343     0.999314 
          17     0.050165    19.934118     0.999068     0.999194     0.983584     0.999068     0.999036 
          18     0.053116    18.826667     0.998814     0.998901     0.977752     0.998814     0.998766 
          19     0.056067    17.835790     0.998675     0.998995     0.979622     0.998675     0.998675 
          20     0.059018    16.944000     0.998207     0.998600     0.971815     0.998207     0.998203 
          21     0.061969    16.137143     0.997927     0.998426     0.968417     0.997927     0.997917 
          22     0.064920    15.403637     0.998043     0.998271     0.965404     0.998043     0.998057 
          23     0.067871    14.733913     0.998043     0.997987     0.959943     0.998043     0.998130 
          24     0.070822    14.120000     0.998108     0.998151     0.963097     0.998108     0.998170 
          25     0.073772    13.555200     0.998112     0.998212     0.964268     0.998112     0.998144 
          26     0.076723    13.033846     0.998113     0.998501     0.969880     0.998113     0.998156 
          27     0.079674    12.551111     0.998167     0.998562     0.971080     0.998167     0.998212 
          28     0.082625    12.102857     0.998018     0.998430     0.968489     0.998018     0.998074 
          29     0.085576    11.685517     0.997621     0.998241     0.964821     0.997621     0.997675 
          30     0.088527    11.296000     0.997420     0.997988     0.959969     0.997420     0.997486 
          31     0.091478    10.931613     0.997136     0.997923     0.958730     0.997136     0.997250 
          32     0.094429    10.590000     0.996834     0.997615     0.952873     0.996834     0.996957 
          33     0.097380    10.269091     0.996748     0.997418     0.949162     0.996748     0.996839 
          34     0.100330     9.967059     0.996625     0.997532     0.951305     0.996625     0.996764 
          35     0.103281     9.682286     0.996429     0.997167     0.944497     0.996429     0.996459 
          36     0.106232     9.413333     0.995912     0.996577     0.933653     0.995912     0.995903 
          37     0.109183     9.158919     0.994610     0.995680     0.917637     0.994610     0.994608 
          38     0.112134     8.917895     0.992802     0.994957     0.905104     0.992802     0.992719 
          39     0.115085     8.689231     0.990964     0.993791     0.885553     0.990964     0.990808 
          40     0.118036     8.472000     0.989527     0.992792     0.869416     0.989527     0.989036 
          41     0.120987     8.265366     0.988288     0.991707     0.852529     0.988288     0.986678 
          42     0.123938     8.068572     0.987423     0.990468     0.833973     0.987423     0.983785 
          43     0.126889     7.880930     0.985633     0.988489     0.805866     0.985633     0.975572 
          44     0.129839     7.701818     0.982210     0.985325     0.764471     0.982210     0.947074 
          45     0.132790     7.530667     0.978780     0.983222     0.739090     0.978780     0.862904 
          46     0.135741     7.366957     0.910493     0.978998     0.692626     0.975286     0.723893 
          47     0.138692     7.210213     0.923539     0.978293     0.685394     0.973135     0.648640 
          48     0.141643     7.060000     0.921648     0.975551     0.658572     0.968215     0.594332 
          49     0.144594     6.915918     0.920357     0.974441     0.648253     0.964361     0.552518 
          50     0.147545     6.777600     0.918149     0.972851     0.633992     0.961064     0.524310 
          51     0.150496     6.644706     0.908530     0.967929     0.593319     0.954865     0.506557 
          52     0.153447     6.516923     0.896069     0.964720     0.569311     0.946711     0.487266 
          53     0.156398     6.393962     0.896754     0.962105     0.551022     0.943833     0.455988 
          54     0.159348     6.275556     0.895885     0.958301     0.526275     0.940984     0.433167 
          55     0.162299     6.161455     0.901529     0.958461     0.527273     0.940237     0.393098 
          56     0.165250     6.051429     0.909242     0.959080     0.531175     0.939468     0.333039 
          57     0.168201     5.945263     0.909652     0.958405     0.526924     0.935577     0.286947 
          58     0.171152     5.842759     0.902233     0.955427     0.508882     0.930461     0.288729 
          59     0.174103     5.743729     0.896218     0.955089     0.506908     0.926559     0.292353 
          60     0.177054     5.648000     0.900694     0.956341     0.514301     0.927810     0.273049 
          61     0.180005     5.555410     0.910674     0.955301     0.508148     0.932080     0.239635 
          62     0.182956     5.465807     0.918443     0.956575     0.515701     0.935970     0.214905 
          63     0.185907     5.379048     0.922384     0.960184     0.538266     0.937909     0.200021 
          64     0.188857     5.295000     0.928697     0.963405     0.559975     0.941754     0.183129 
          65     0.191808     5.213539     0.932852     0.965319     0.573653     0.942419     0.142473 
          66     0.194759     5.134546     0.937362     0.967100     0.586943     0.944536     0.114524 
          67     0.197710     5.057911     0.940358     0.967433     0.589490     0.946673     0.105887 
          68     0.200661     4.983529     0.940113     0.968235     0.595710     0.946358     0.104275 
          69     0.203612     4.911304     0.941839     0.968503     0.597817     0.946794     0.085190 
          70     0.206563     4.841143     0.943345     0.968267     0.595958     0.947249     0.068920 
          71     0.209514     4.772958     0.940825     0.969385     0.604840     0.944880     0.068526 
          72     0.212465     4.706667     0.934112     0.964999     0.571322     0.938726     0.070033 
          73     0.215415     4.642192     0.929307     0.962924     0.556637     0.933764     0.063056 
          74     0.218366     4.579460     0.927351     0.959793     0.535737     0.931570     0.058075 
          75     0.221317     4.518400     0.926895     0.960612     0.541064     0.931268     0.059809 
          76     0.224268     4.458947     0.923403     0.955567     0.509704     0.927543     0.054051 
          77     0.227219     4.401039     0.914782     0.947014     0.463515     0.919081     0.050447 
          78     0.230170     4.344615     0.902803     0.943537     0.446843     0.906443     0.037452 
          79     0.233121     4.289620     0.889299     0.934093     0.406571     0.893248     0.035667 
          80     0.236072     4.236000     0.874714     0.929249     0.388342     0.879233     0.036076 
          81     0.239023     4.183704     0.860392     0.918800     0.353580     0.865525     0.036769 
          82     0.241974     4.132683     0.849264     0.910987     0.330982     0.854155     0.032445 
          83     0.244924     4.082892     0.832833     0.903953     0.312695     0.839829     0.041845 
          84     0.247875     4.034286     0.814733     0.885864     0.272828     0.823411     0.046840 
          85     0.250826     3.986824     0.793406     0.869400     0.243456     0.799890     0.031385 
          86     0.253777     3.940465     0.773181     0.862223     0.232256     0.778118     0.021767 
          87     0.256728     3.895172     0.750124     0.843755     0.207009     0.756915     0.027175 
          88     0.259679     3.850909     0.737217     0.831413     0.192504     0.746231     0.034300 
          89     0.262630     3.807641     0.717470     0.816220     0.176746     0.726530     0.032067 
          90     0.265581     3.765333     0.693941     0.800822     0.162730     0.702967     0.029490 
          91     0.268532     3.723956     0.669295     0.787142     0.151651     0.677707     0.025435 
          92     0.271483     3.683478     0.648565     0.767594     0.137678     0.657318     0.024906 
          93     0.274433     3.643871     0.611950     0.716328     0.108789     0.621510     0.024634 
          94     0.277384     3.605106     0.574528     0.738887     0.120331     0.586564     0.028287 
          95     0.280335     3.567158     0.545311     0.736849     0.119220     0.561800     0.036264 
          96     0.283286     3.530000     0.518396     0.707192     0.104546     0.535871     0.036285 
          97     0.286237     3.493608     0.488571     0.680137     0.093207     0.503681     0.029544 
          98     0.289188     3.457959     0.458120     0.674831     0.091175     0.472880     0.027240 
          99     0.292139     3.423030     0.433863     0.645995     0.081061     0.447861     0.024725 
         100     0.295090     3.388800     0.396840     0.664219     0.087277     0.409313     0.020679 
         101     0.298041     3.355248     0.366901     0.660533     0.085973     0.371942     0.007963 
         102     0.300991     3.322353     0.355322     0.619676     0.073012     0.359321     0.006204 
         103     0.303942     3.290097     0.324202     0.601991     0.068133     0.330354     0.009103 
         104     0.306893     3.258462     0.284836     0.582137     0.063095     0.296366     0.016121 
         105     0.309844     3.227429     0.252461     0.650124     0.082420     0.260611     0.010901 
         106     0.312795     3.196981     0.242494     0.543688     0.054460     0.240994     -0.00198 
         107     0.315746     3.167103     0.222555     0.618168     0.072580     0.219673     -0.00371 
         108     0.318697     3.137778     0.193196     0.575426     0.061487     0.196539     0.004144 
         109     0.321648     3.108991     0.188989     0.575640     0.061538     0.193109     0.005080 
         110     0.324599     3.080727     0.176849     0.502110     0.046484     0.173868     -0.00362 
         111     0.327550     3.052973     0.145307     0.537096     0.053109     0.143865     -0.00169 
         112     0.330500     3.025714     0.132269     0.522371     0.050214     0.132060 -2.41570e-04 
         113     0.333451     2.998938     0.142758     0.546107     0.054964     0.142836 9.155640e-05 
         114     0.336402     2.972632     0.147770     0.545108     0.054755     0.144809     -0.00347 
         115     0.339353     2.946783     0.138129     0.555414     0.056951     0.134989     -0.00364 
         116     0.342304     2.921379     0.126691     0.489418     0.044284     0.129349     0.003044 
         117     0.345255     2.896410     0.122455     0.488894     0.044196     0.124751     0.002617 
         118     0.348206     2.871864     0.129969     0.559331     0.057810     0.127567     -0.00276 
         119     0.351157     2.847731     0.120212     0.482762     0.043170     0.119632 -6.58689e-04 
         120     0.354108     2.824000     0.099742     0.510257     0.047950     0.107846     0.009001 
         121     0.357059     2.800661     0.064254     0.473337     0.041637     0.076529     0.013118 
         122     0.360009     2.777705     0.062020     0.445586     0.037398     0.067113     0.005430 
         123     0.362960     2.755122     0.080294     0.502984     0.046639     0.077122     -0.00345 
         124     0.365911     2.732903     0.081059     0.461306     0.039750     0.080566 -5.36680e-04 
         125     0.368862     2.711040     0.072379     0.438774     0.036417     0.075702     0.003582 
         126     0.371813     2.689524     0.080059     0.435950     0.036016     0.094009     0.015164 
         127     0.374764     2.668346     0.093102     0.500569     0.046211     0.103083     0.011005 
         128     0.377715     2.647500     0.077226     0.541578     0.054024     0.085244     0.008689 
         129     0.380666     2.626977     0.059311     0.515802     0.048974     0.067417     0.008617 
         130     0.383617     2.606769     0.055278     0.554408     0.056733     0.064042     0.009277 
         131     0.386568     2.586870     0.062006     0.491315     0.044607     0.070569     0.009129 
         132     0.389518     2.567273     0.065116     0.467426     0.040700     0.075472     0.011077 
         133     0.392469     2.547970     0.061074     0.554540     0.056761     0.076429     0.016353 
         134     0.395420     2.528955     0.052662     0.539276     0.053552     0.071983     0.020395 
         135     0.398371     2.510222     0.061910     0.526527     0.051014     0.075252     0.014222 
         136     0.401322     2.491765     0.073444     0.513971     0.048633     0.073799 3.829795e-04 
         137     0.404273     2.473577     0.074370     0.515383     0.048895     0.070672     -0.00399 
         138     0.407224     2.455652     0.076855     0.536024     0.052893     0.069108     -0.00839 
         139     0.410175     2.437986     0.076197     0.492840     0.044868     0.071947     -0.00460 
         140     0.413126     2.420571     0.069048     0.452239     0.038379     0.067259     -0.00192 
         141     0.416076     2.403404     0.063804     0.474230     0.041780     0.060889     -0.00311 
         142     0.419027     2.386479     0.058984     0.445500     0.037386     0.055714     -0.00347 
         143     0.421978     2.369790     0.068662     0.452690     0.038446     0.065934     -0.00293 
         144     0.424929     2.353333     0.078032     0.411682     0.032720     0.073969     -0.00441 
         145     0.427880     2.337103     0.078198     0.424214     0.034390     0.073249     -0.00537 
         146     0.430831     2.321096     0.078686     0.460267     0.039591     0.071459     -0.00784 
         147     0.433782     2.305306     0.080575     0.492909     0.044879     0.072853     -0.00840 
         148     0.436733     2.289730     0.079460     0.456527     0.039022     0.070115     -0.01015 
         149     0.439684     2.274362     0.066781     0.429471     0.035111     0.064489     -0.00246 
         150     0.442635     2.259200     0.067864     0.469643     0.041049     0.068994     0.001212 
         151     0.445585     2.244238     0.084095     0.455760     0.038906     0.076634     -0.00815 
         152     0.448536     2.229474     0.086544     0.461503     0.039780     0.073559     -0.01422 
         153     0.451487     2.214902     0.078953     0.437230     0.036197     0.077510     -0.00157 
         154     0.454438     2.200520     0.074931     0.446450     0.037524     0.085185     0.011084 
         155     0.457389     2.186323     0.075448     0.432982     0.035599     0.082858     0.008014 
         156     0.460340     2.172308     0.075412     0.481222     0.042916     0.073527     -0.00204 
         157     0.463291     2.158471     0.085428     0.463076     0.040023     0.082055     -0.00369 
         158     0.466242     2.144810     0.082555     0.494819     0.045208     0.082955 4.367813e-04 
         159     0.469193     2.131321     0.073651     0.465023     0.040325     0.073251 -4.31006e-04 
         160     0.472144     2.118000     0.067161     0.405706     0.031946     0.067011 -1.60706e-04 
 

# version 30001

data_guinier

loop_ 
_rlnResolutionSquared #1 
_rlnLogAmplitudesOriginal #2 
_rlnLogAmplitudesWeighted #3 
_rlnLogAmplitudesSharpened #4 
_rlnLogAmplitudesIntercept #5 
    0.000000    -11.46667    -11.46667    -11.46667    -14.04985 
8.707793e-06     -9.09240     -9.09240     -9.09225    -14.04985 
3.483117e-05     -9.21696     -9.21696     -9.21652    -14.04985 
7.837014e-05    -10.35957    -10.35958    -10.35874    -14.04985 
1.393247e-04    -10.26775    -10.26777    -10.26625    -14.04985 
2.176948e-04    -10.48269    -10.48270    -10.48037    -14.04985 
3.134806e-04    -10.92661    -10.92662    -10.92324    -14.04985 
4.266819e-04    -11.24765    -11.24766    -11.24321    -14.04985 
5.572988e-04    -11.46171    -11.46175    -11.45600    -14.04985 
7.053313e-04    -11.59592    -11.59594    -11.58862    -14.04985 
8.707793e-04    -11.94516    -11.94519    -11.93610    -14.04985 
    0.001054    -12.01643    -12.01646    -12.00548    -14.04985 
    0.001254    -12.05836    -12.05839    -12.04545    -14.04985 
    0.001472    -12.28271    -12.28276    -12.26757    -14.04985 
    0.001707    -12.42742    -12.42748    -12.40979    -14.04985 
    0.001959    -12.53756    -12.53765    -12.51749    -14.04985 
    0.002229    -12.66045    -12.66061    -12.63773    -14.04985 
    0.002517    -12.85157    -12.85181    -12.82592    -14.04985 
    0.002821    -13.01250    -13.01279    -12.98364    -14.04985 
    0.003144    -12.99679    -12.99713    -12.96470    -14.04985 
    0.003483    -13.13187    -13.13232    -13.09650    -14.04985 
    0.003840    -13.26712    -13.26764    -13.22809    -14.04985 
    0.004215    -13.25092    -13.25141    -13.20796    -14.04985 
    0.004606    -13.24494    -13.24543    -13.19800    -14.04985 
    0.005016    -13.22063    -13.22110    -13.16951    -14.04985 
    0.005442    -13.19006    -13.19053    -13.13452    -14.04985 
    0.005886    -13.16600    -13.16647    -13.10585    -14.04985 
    0.006348    -13.16331    -13.16377    -13.09840    -14.04985 
    0.006827    -13.19140    -13.19189    -13.12161    -14.04985 
    0.007323    -13.26881    -13.26940    -13.19402    -14.04985 
    0.007837    -13.30469    -13.30533    -13.22469    -14.04985 
    0.008368    -13.34638    -13.34710    -13.26103    -14.04985 
    0.008917    -13.36821    -13.36901    -13.27731    -14.04985 
    0.009483    -13.36376    -13.36458    -13.26706    -14.04985 
    0.010066    -13.34492    -13.34577    -13.24221    -14.04985 
    0.010667    -13.40210    -13.40299    -13.29327    -14.04985 
    0.011285    -13.48821    -13.48924    -13.37322    -14.04985 
    0.011921    -13.57603    -13.57739    -13.45480    -14.04985 
    0.012574    -13.68553    -13.68734    -13.55804    -14.04985 
    0.013245    -13.77137    -13.77365    -13.63752    -14.04985 
    0.013932    -13.81821    -13.82085    -13.67764    -14.04985 
    0.014638    -13.88655    -13.88950    -13.73902    -14.04985 
    0.015361    -13.95027    -13.95345    -13.79554    -14.04985 
    0.016101    -14.05556    -14.05919    -13.89367    -14.04985 
    0.016858    -14.13482    -14.13933    -13.96601    -14.04985 
    0.017633    -14.17326    -14.17865    -13.99736    -14.04985 
    0.018426    -14.26178    -14.28577    -14.09634    -14.04985 
    0.019236    -14.29536    -14.31565    -14.11795    -14.04985 
    0.020063    -14.34212    -14.36293    -14.15678    -14.04985 
    0.020907    -14.35179    -14.37296    -14.15806    -14.04985 
    0.021769    -14.37392    -14.39572    -14.17188    -14.04985 
    0.022649    -14.41399    -14.43855    -14.20571    -14.04985 
    0.023546    -14.44703    -14.47522    -14.23316    -14.04985 
    0.024460    -14.45607    -14.48405    -14.23251    -14.04985 
    0.025392    -14.46735    -14.49559    -14.23450    -14.04985 
    0.026341    -14.47273    -14.49932    -14.22853    -14.04985 
    0.027308    -14.46219    -14.48654    -14.20592    -14.04985 
    0.028292    -14.47970    -14.50394    -14.21313    -14.04985 
    0.029293    -14.49770    -14.52409    -14.22295    -14.04985 
    0.030312    -14.48815    -14.51630    -14.20471    -14.04985 
    0.031348    -14.46502    -14.49185    -14.16959    -14.04985 
    0.032402    -14.45397    -14.47791    -14.14478    -14.04985 
    0.033473    -14.43182    -14.45354    -14.10938    -14.04985 
    0.034561    -14.40706    -14.42767    -14.07241    -14.04985 
    0.035667    -14.36569    -14.38452    -14.01803    -14.04985 
    0.036790    -14.33119    -14.34887    -13.97073    -14.04985 
    0.037931    -14.30740    -14.32384    -13.93391    -14.04985 
    0.039089    -14.29716    -14.31277    -13.91091    -14.04985 
    0.040265    -14.28704    -14.30271    -13.88878    -14.04985 
    0.041458    -14.26789    -14.28309    -13.85690    -14.04985 
    0.042668    -14.27017    -14.28497    -13.84632    -14.04985 
    0.043896    -14.25637    -14.27185    -13.82072    -14.04985 
    0.045141    -14.28024    -14.29757    -13.83369    -14.04985 
    0.046404    -14.29067    -14.30934    -13.83240    -14.04985 
    0.047684    -14.30612    -14.32533    -13.83524    -14.04985 
    0.048981    -14.33004    -14.34938    -13.84598    -14.04985 
    0.050296    -14.36888    -14.38920    -13.87227    -14.04985 
    0.051629    -14.38513    -14.40789    -13.87724    -14.04985 
    0.052978    -14.43201    -14.45822    -13.91376    -14.04985 
    0.054345    -14.48358    -14.51377    -13.95530    -14.04985 
    0.055730    -14.50863    -14.54321    -13.97055    -14.04985 
    0.057132    -14.53590    -14.57490    -13.98779    -14.04985 
    0.058551    -14.56046    -14.60298    -14.00121    -14.04985 
    0.059988    -14.58085    -14.62867    -14.01217    -14.04985 
    0.061442    -14.62254    -14.67638    -14.04497    -14.04985 
    0.062914    -14.64381    -14.70501    -14.05847    -14.04985 
    0.064403    -14.65788    -14.72631    -14.06436    -14.04985 
    0.065909    -14.68546    -14.76249    -14.08510    -14.04985 
    0.067433    -14.68093    -14.76294    -14.06993    -14.04985 
    0.068974    -14.69186    -14.78173    -14.07289    -14.04985 
    0.070533    -14.70788    -14.80752    -14.08257    -14.04985 
    0.072109    -14.70895    -14.81934    -14.07819    -14.04985 
    0.073703    -14.71950    -14.83938    -14.08188    -14.04985 
    0.075314    -14.74199    -14.87969    -14.10566    -14.04985 
    0.076942    -14.74042    -14.89793    -14.10718    -14.04985 
    0.078588    -14.74935    -14.92359    -14.11607    -14.04985 
    0.080251    -14.75869    -14.94945    -14.12489    -14.04985 
    0.081932    -14.78036    -14.99083    -14.14892    -14.04985 
    0.083630    -14.78944    -15.02175    -14.16225    -14.04985 
    0.085345    -14.79586    -15.04698    -14.16984    -14.04985 
    0.087078    -14.79905    -15.08170    -14.18682    -14.04985 
    0.088828    -14.80680    -15.11783    -14.20492    -14.04985 
    0.090596    -14.81045    -15.13326    -14.20220    -14.04985 
    0.092381    -14.81379    -15.17081    -14.22137    -14.04985 
    0.094183    -14.81532    -15.22198    -14.25412    -14.04985 
    0.096003    -14.81291    -15.26714    -14.28056    -14.04985 
    0.097841    -14.83065    -15.30103    -14.29546    -14.04985 
    0.099696    -14.81897    -15.32415    -14.29960    -14.04985 
    0.101568    -14.82788    -15.39165    -14.34793    -14.04985 
    0.103457    -14.82638    -15.39939    -14.33619    -14.04985 
    0.105364    -14.83050    -15.43158    -14.34868    -14.04985 
    0.107289    -14.83260    -15.51832    -14.41576    -14.04985 
    0.109231    -14.83219    -15.55918    -14.43672    -14.04985 
    0.111190    -14.82883    -15.52228    -14.37970    -14.04985 
    0.113166    -14.82591    -15.50430    -14.34130    -14.04985 
    0.115161    -14.82799    -15.53590    -14.35246    -14.04985 
    0.117172    -14.83214    -15.57821    -14.37414    -14.04985 
    0.119201    -14.82927    -15.59046    -14.36544    -14.04985 
    0.121247    -14.82073    -15.55548    -14.30942    -14.04985 
    0.123311    -14.82911    -15.59855    -14.33141    -14.04985 
    0.125392    -14.83098    -15.68453    -14.39603    -14.04985 
    0.127491    -14.82445    -15.88147    -14.57134    -14.04985 
    0.129607    -14.83112    -15.90478    -14.57286    -14.04985 
    0.131740    -14.82447    -15.77755    -14.42369    -14.04985 
    0.133891    -14.82684    -15.77553    -14.39963    -14.04985 
    0.136059    -14.83041    -15.83170    -14.43342    -14.04985 
    0.138245    -14.82901    -15.78344    -14.36271    -14.04985 
    0.140448    -14.82389    -15.70886    -14.26561    -14.04985 
    0.142668    -14.81841    -15.78954    -14.32348    -14.04985 
    0.144906    -14.81230    -15.90701    -14.41793    -14.04985 
    0.147162    -14.81131    -15.93933    -14.42701    -14.04985 
    0.149434    -14.81548    -15.88925    -14.35363    -14.04985 
    0.151725    -14.81365    -15.86441    -14.30526    -14.04985 
    0.154032    -14.81240    -15.89330    -14.31041    -14.04985 
    0.156357    -14.81076    -15.96178    -14.35498    -14.04985 
    0.158700    -14.80774    -15.88224    -14.25146    -14.04985 
    0.161059    -14.80964    -15.80412    -14.14907    -14.04985 
    0.163437    -14.80633    -15.79498    -14.11540    -14.04985 
    0.165831    -14.80559    -15.77896    -14.07470    -14.04985 
    0.168243    -14.80915    -15.78651    -14.05764    -14.04985 
    0.170673    -14.80917    -15.83245    -14.07863    -14.04985 
    0.173120    -14.80770    -15.86803    -14.08903    -14.04985 
    0.175584    -14.81427    -15.91159    -14.10723    -14.04985 
    0.178066    -14.80945    -15.83536    -14.00554    -14.04985 
    0.180565    -14.81245    -15.77877    -13.92338    -14.04985 
    0.183081    -14.81266    -15.77798    -13.89675    -14.04985 
    0.185615    -14.80764    -15.77009    -13.86269    -14.04985 
    0.188167    -14.80521    -15.75666    -13.82303    -14.04985 
    0.190736    -14.81232    -15.77023    -13.81018    -14.04985 
    0.193322    -14.80844    -15.84736    -13.86068    -14.04985 
    0.195925    -14.80564    -15.83703    -13.82356    -14.04985 
    0.198546    -14.80571    -15.73741    -13.69701    -14.04985 
    0.201185    -14.80816    -15.72664    -13.65923    -14.04985 
    0.203841    -14.81339    -15.77427    -13.67962    -14.04985 
    0.206514    -14.80512    -15.79026    -13.66804    -14.04985 
    0.209205    -14.81134    -15.79329    -13.64351    -14.04985 
    0.211913    -14.80001    -15.78218    -13.60458    -14.04985 
    0.214638    -14.79882    -15.72327    -13.51765    -14.04985 
    0.217381    -14.78275    -15.72299    -13.48906    -14.04985 
    0.220142    -14.69089    -15.68406    -13.42111    -14.04985 
    0.222920    -14.49294    -15.52919    -13.84908    -14.04985 
 
