# RELION postprocess; version 4.0-beta-2
# --mask mask.mrc --i output/_iter7_half1.mrc --i2 output/_iter7_half2.mrc --o output/_postprocess_iter7/iter7 --angpix 1.059 --auto_bfac --autob_lowres 10 

# version 30001

data_general

_rlnFinalResolution                               3.025714
_rlnBfactorUsedForSharpening                     -34.28732
_rlnUnfilteredMapHalf1                        output/_iter7_half1.mrc
_rlnUnfilteredMapHalf2                        output/_iter7_half2.mrc
_rlnPostprocessedMap                          output/_postprocess_iter7/iter7.mrc
_rlnParticleBoxFractionSolventMask               20.686732
_rlnMaskName                                  mask.mrc
_rlnRandomiseFrom                                 9.158919
_rlnPostprocessedMapMasked                    output/_postprocess_iter7/iter7_masked.mrc
_rlnFittedSlopeGuinierPlot                        -8.57183
_rlnFittedInterceptGuinierPlot                   -13.59940
_rlnCorrelationFitGuinierPlot                     0.869605
 

# version 30001

data_fsc

loop_ 
_rlnSpectralIndex #1 
_rlnResolution #2 
_rlnAngstromResolution #3 
_rlnFourierShellCorrelationCorrected #4 
_rlnFourierShellCorrelationParticleMaskFraction #5 
_rlnFourierShellCorrelationUnmaskedMaps #6 
_rlnFourierShellCorrelationMaskedMaps #7 
_rlnCorrectedFourierShellCorrelationPhaseRandomizedMaskedMaps #8 
           0     0.001001   999.000000     1.000000     1.000000     1.000000     1.000000     1.000000 
           1     0.002951   338.880005     0.999999     0.999977     0.999519     0.999999     1.000000 
           2     0.005902   169.440002     0.999995     0.999993     0.999854     0.999995     0.999998 
           3     0.008853   112.960002     0.999951     0.999891     0.997758     0.999951     0.999970 
           4     0.011804    84.720001     0.999961     0.999945     0.998868     0.999961     0.999961 
           5     0.014754    67.776001     0.999962     0.999930     0.998563     0.999962     0.999962 
           6     0.017705    56.480001     0.999910     0.999866     0.997244     0.999910     0.999906 
           7     0.020656    48.411429     0.999809     0.999784     0.995554     0.999809     0.999806 
           8     0.023607    42.360001     0.999696     0.999776     0.995383     0.999696     0.999716 
           9     0.026558    37.653334     0.999719     0.999733     0.994500     0.999719     0.999740 
          10     0.029509    33.888000     0.999627     0.999485     0.989459     0.999627     0.999649 
          11     0.032460    30.807273     0.999608     0.999646     0.992726     0.999608     0.999613 
          12     0.035411    28.240000     0.999649     0.999570     0.991177     0.999649     0.999652 
          13     0.038362    26.067693     0.999599     0.999560     0.990984     0.999599     0.999613 
          14     0.041313    24.205715     0.999298     0.999235     0.984402     0.999298     0.999319 
          15     0.044263    22.592000     0.998626     0.998780     0.975364     0.998626     0.998605 
          16     0.047214    21.180000     0.997805     0.998259     0.965174     0.997805     0.997723 
          17     0.050165    19.934118     0.996985     0.997367     0.948213     0.996985     0.996794 
          18     0.053116    18.826667     0.996629     0.996008     0.923434     0.996629     0.996380 
          19     0.056067    17.835790     0.996752     0.996386     0.930202     0.996752     0.996614 
          20     0.059018    16.944000     0.995962     0.995521     0.914852     0.995962     0.996016 
          21     0.061969    16.137143     0.995598     0.995209     0.909441     0.995598     0.995601 
          22     0.064920    15.403637     0.995553     0.994553     0.898238     0.995553     0.995514 
          23     0.067871    14.733913     0.994644     0.993045     0.873457     0.994644     0.994524 
          24     0.070822    14.120000     0.994354     0.993697     0.884007     0.994354     0.994124 
          25     0.073772    13.555200     0.994542     0.994449     0.896487     0.994542     0.994286 
          26     0.076723    13.033846     0.995161     0.995222     0.909663     0.995161     0.994935 
          27     0.079674    12.551111     0.995021     0.995187     0.909060     0.995021     0.994984 
          28     0.082625    12.102857     0.994279     0.994457     0.896610     0.994279     0.994212 
          29     0.085576    11.685517     0.993352     0.993540     0.881434     0.993352     0.993160 
          30     0.088527    11.296000     0.993319     0.993619     0.882722     0.993319     0.992922 
          31     0.091478    10.931613     0.992933     0.992784     0.869294     0.992933     0.992241 
          32     0.094429    10.590000     0.992481     0.992037     0.857594     0.992481     0.991619 
          33     0.097380    10.269091     0.992336     0.991886     0.855264     0.992336     0.991307 
          34     0.100330     9.967059     0.992426     0.991874     0.855086     0.992426     0.991060 
          35     0.103281     9.682286     0.991112     0.991060     0.842740     0.991112     0.988229 
          36     0.106232     9.413333     0.989053     0.988951     0.812265     0.989053     0.979831 
          37     0.109183     9.158919     0.986249     0.987529     0.792867     0.986249     0.950479 
          38     0.112134     8.917895     0.983398     0.985150     0.762294     0.983398     0.850232 
          39     0.115085     8.689231     0.941104     0.982037     0.725479     0.981603     0.687632 
          40     0.118036     8.472000     0.947384     0.979626     0.699182     0.979625     0.612767 
          41     0.120987     8.265366     0.950186     0.976604     0.668632     0.977757     0.553468 
          42     0.123938     8.068572     0.950629     0.974021     0.644429     0.974952     0.492667 
          43     0.126889     7.880930     0.947030     0.967820     0.592472     0.969988     0.433423 
          44     0.129839     7.701818     0.935102     0.961719     0.548417     0.962756     0.426115 
          45     0.132790     7.530667     0.923806     0.955815     0.511171     0.955971     0.422139 
          46     0.135741     7.366957     0.909840     0.943200     0.445281     0.945650     0.397187 
          47     0.138692     7.210213     0.901869     0.941840     0.439089     0.938601     0.374319 
          48     0.141643     7.060000     0.893135     0.936809     0.417469     0.931939     0.363115 
          49     0.144594     6.915918     0.896943     0.938769     0.425663     0.931999     0.340165 
          50     0.147545     6.777600     0.901900     0.936987     0.418199     0.932402     0.310922 
          51     0.150496     6.644706     0.893394     0.925954     0.376752     0.923535     0.282730 
          52     0.153447     6.516923     0.877058     0.919984     0.357240     0.909280     0.262089 
          53     0.156398     6.393962     0.870887     0.910918     0.330793     0.902827     0.247376 
          54     0.159348     6.275556     0.869695     0.913208     0.337144     0.900772     0.238498 
          55     0.162299     6.161455     0.866355     0.904668     0.314472     0.896064     0.222300 
          56     0.165250     6.051429     0.873444     0.903910     0.312587     0.897245     0.188064 
          57     0.168201     5.945263     0.879052     0.895534     0.292984     0.897952     0.156266 
          58     0.171152     5.842759     0.875521     0.903947     0.312679     0.893288     0.142728 
          59     0.174103     5.743729     0.873089     0.902650     0.309498     0.888266     0.119593 
          60     0.177054     5.648000     0.877341     0.902785     0.309827     0.889522     0.099303 
          61     0.180005     5.555410     0.873909     0.899223     0.301351     0.885732     0.093763 
          62     0.182956     5.465807     0.871973     0.899301     0.301533     0.884005     0.093978 
          63     0.185907     5.379048     0.879993     0.909666     0.327410     0.891239     0.093711 
          64     0.188857     5.295000     0.890837     0.918078     0.351380     0.901008     0.093175 
          65     0.191808     5.213539     0.894666     0.920085     0.357555     0.903900     0.087663 
          66     0.194759     5.134546     0.899994     0.920348     0.358380     0.907525     0.075307 
          67     0.197710     5.057911     0.907120     0.932071     0.398783     0.911538     0.047569 
          68     0.200661     4.983529     0.908641     0.929241     0.388313     0.911772     0.034280 
          69     0.203612     4.911304     0.910701     0.931608     0.397036     0.913543     0.031821 
          70     0.206563     4.841143     0.913235     0.932312     0.399696     0.916027     0.032180 
          71     0.209514     4.772958     0.911451     0.932056     0.398723     0.914236     0.031448 
          72     0.212465     4.706667     0.903179     0.930829     0.394128     0.905941     0.028520 
          73     0.215415     4.642192     0.897758     0.926172     0.377500     0.899676     0.018754 
          74     0.218366     4.579460     0.895677     0.917128     0.348522     0.896917     0.011884 
          75     0.221317     4.518400     0.894065     0.919778     0.356599     0.894512     0.004223 
          76     0.224268     4.458947     0.887971     0.909801     0.327770     0.888345     0.003336 
          77     0.227219     4.401039     0.875550     0.895850     0.293686     0.877187     0.013156 
          78     0.230170     4.344615     0.863608     0.896010     0.294042     0.865272     0.012198 
          79     0.233121     4.289620     0.850233     0.888284     0.277648     0.850459     0.001510 
          80     0.236072     4.236000     0.831839     0.881283     0.264083     0.831534     -0.00181 
          81     0.239023     4.183704     0.820538     0.869027     0.242852     0.820991     0.002524 
          82     0.241974     4.132683     0.816868     0.865925     0.237924     0.816837 -1.68745e-04 
          83     0.244924     4.082892     0.802723     0.852118     0.217860     0.803507     0.003976 
          84     0.247875     4.034286     0.771722     0.835543     0.197173     0.773696     0.008649 
          85     0.250826     3.986824     0.742921     0.815391     0.175946     0.745565     0.010283 
          86     0.253777     3.940465     0.725978     0.808037     0.169076     0.727752     0.006474 
          87     0.256728     3.895172     0.705454     0.781181     0.147175     0.708420     0.010071 
          88     0.259679     3.850909     0.680703     0.788109     0.152397     0.685433     0.014814 
          89     0.262630     3.807641     0.647443     0.767879     0.137867     0.655579     0.023077 
          90     0.265581     3.765333     0.622221     0.746269     0.124479     0.630984     0.023197 
          91     0.268532     3.723956     0.593991     0.741958     0.122033     0.600761     0.016675 
          92     0.271483     3.683478     0.567959     0.704680     0.103418     0.574682     0.015561 
          93     0.274433     3.643871     0.528861     0.650270     0.082469     0.542852     0.029696 
          94     0.277384     3.605106     0.499889     0.705047     0.103582     0.512615     0.025447 
          95     0.280335     3.567158     0.471810     0.703577     0.102928     0.480293     0.016061 
          96     0.283286     3.530000     0.442575     0.651623     0.082921     0.444259     0.003021 
          97     0.286237     3.493608     0.427458     0.657557     0.084938     0.425717     -0.00304 
          98     0.289188     3.457959     0.412765     0.614050     0.071417     0.408730     -0.00687 
          99     0.292139     3.423030     0.371251     0.575329     0.061464     0.363989     -0.01155 
         100     0.295090     3.388800     0.336860     0.631121     0.076388     0.330483     -0.00962 
         101     0.298041     3.355248     0.316131     0.597530     0.066963     0.315152     -0.00143 
         102     0.300991     3.322353     0.301900     0.577464     0.061971     0.305698     0.005440 
         103     0.303942     3.290097     0.258101     0.599676     0.067523     0.262847     0.006397 
         104     0.306893     3.258462     0.221697     0.585634     0.063951     0.230268     0.011013 
         105     0.309844     3.227429     0.196698     0.583275     0.063372     0.207552     0.013511 
         106     0.312795     3.196981     0.191901     0.543518     0.054425     0.203128     0.013892 
         107     0.315746     3.167103     0.175402     0.541671     0.054043     0.189000     0.016490 
         108     0.318697     3.137778     0.169701     0.512415     0.048346     0.172053     0.002833 
         109     0.321648     3.108991     0.176157     0.543113     0.054340     0.169700     -0.00784 
         110     0.324599     3.080727     0.167692     0.465803     0.040446     0.159568     -0.00976 
         111     0.327550     3.052973     0.145446     0.485281     0.043589     0.144874 -6.69491e-04 
         112     0.330500     3.025714     0.144239     0.537644     0.053220     0.146465     0.002601 
         113     0.333451     2.998938     0.134221     0.538456     0.053385     0.140767     0.007561 
         114     0.336402     2.972632     0.121734     0.567480     0.059641     0.126276     0.005172 
         115     0.339353     2.946783     0.114280     0.567017     0.059535     0.119072     0.005410 
         116     0.342304     2.921379     0.086867     0.487202     0.043911     0.097218     0.011336 
         117     0.345255     2.896410     0.073000     0.504309     0.046875     0.080635     0.008236 
         118     0.348206     2.871864     0.093340     0.519121     0.049596     0.094787     0.001596 
         119     0.351157     2.847731     0.124555     0.490017     0.044386     0.117825     -0.00769 
         120     0.354108     2.824000     0.123401     0.522780     0.050292     0.120993     -0.00275 
         121     0.357059     2.800661     0.103918     0.492602     0.044827     0.103712 -2.29516e-04 
         122     0.360009     2.777705     0.097958     0.485851     0.043684     0.098015 6.381701e-05 
         123     0.362960     2.755122     0.082418     0.458838     0.039373     0.082295 -1.33526e-04 
         124     0.365911     2.732903     0.068599     0.524722     0.050665     0.066778     -0.00195 
         125     0.368862     2.711040     0.062241     0.500145     0.046137     0.051081     -0.01190 
         126     0.371813     2.689524     0.078567     0.499677     0.046054     0.063054     -0.01684 
         127     0.374764     2.668346     0.074916     0.492972     0.044890     0.067995     -0.00748 
         128     0.377715     2.647500     0.070358     0.466447     0.040547     0.066848     -0.00378 
         129     0.380666     2.626977     0.064341     0.454682     0.038744     0.062098     -0.00240 
         130     0.383617     2.606769     0.053888     0.544567     0.054643     0.048015     -0.00621 
         131     0.386568     2.586870     0.046393     0.480513     0.042800     0.042093     -0.00451 
         132     0.389518     2.567273     0.061650     0.475706     0.042017     0.059803     -0.00197 
         133     0.392469     2.547970     0.060597     0.486819     0.043846     0.064282     0.003923 
         134     0.395420     2.528955     0.055416     0.433531     0.035676     0.056517     0.001165 
         135     0.398371     2.510222     0.056814     0.479238     0.042591     0.058862     0.002172 
         136     0.401322     2.491765     0.060638     0.462980     0.040008     0.065135     0.004787 
         137     0.404273     2.473577     0.061738     0.546947     0.055141     0.068345     0.007042 
         138     0.407224     2.455652     0.067422     0.475827     0.042037     0.065149     -0.00244 
         139     0.410175     2.437986     0.066060     0.514371     0.048707     0.058948     -0.00762 
         140     0.413126     2.420571     0.050484     0.488573     0.044142     0.048668     -0.00191 
         141     0.416076     2.403404     0.045131     0.448009     0.037753     0.049786     0.004875 
         142     0.419027     2.386479     0.059111     0.473171     0.041610     0.064450     0.005674 
         143     0.421978     2.369790     0.065313     0.489216     0.044250     0.072205     0.007374 
         144     0.424929     2.353333     0.066227     0.464662     0.040269     0.076088     0.010560 
         145     0.427880     2.337103     0.062594     0.476265     0.042108     0.074420     0.012616 
         146     0.430831     2.321096     0.070098     0.485842     0.043683     0.078317     0.008839 
         147     0.433782     2.305306     0.086783     0.493424     0.044968     0.087416 6.934284e-04 
         148     0.436733     2.289730     0.075506     0.433614     0.035687     0.076886     0.001492 
         149     0.439684     2.274362     0.051072     0.456203     0.038973     0.055807     0.004990 
         150     0.442635     2.259200     0.041365     0.489339     0.044271     0.038854     -0.00262 
         151     0.445585     2.244238     0.057729     0.431096     0.035336     0.046260     -0.01217 
         152     0.448536     2.229474     0.070614     0.468069     0.040801     0.060382     -0.01101 
         153     0.451487     2.214902     0.071866     0.437485     0.036233     0.065644     -0.00670 
         154     0.454438     2.200520     0.057076     0.387053     0.029621     0.058331     0.001331 
         155     0.457389     2.186323     0.042425     0.466369     0.040535     0.047186     0.004972 
         156     0.460340     2.172308     0.047090     0.443220     0.037055     0.051683     0.004821 
         157     0.463291     2.158471     0.058569     0.474396     0.041806     0.063411     0.005143 
         158     0.466242     2.144810     0.063764     0.450489     0.038119     0.066450     0.002870 
         159     0.469193     2.131321     0.063788     0.450449     0.038113     0.064458 7.153055e-04 
         160     0.472144     2.118000     0.061327     0.425519     0.034568     0.064702     0.003596 
 

# version 30001

data_guinier

loop_ 
_rlnResolutionSquared #1 
_rlnLogAmplitudesOriginal #2 
_rlnLogAmplitudesWeighted #3 
_rlnLogAmplitudesSharpened #4 
_rlnLogAmplitudesIntercept #5 
    0.000000    -11.39694    -11.39694    -11.39694    -13.59940 
8.707793e-06     -9.07384     -9.07384     -9.07372    -13.59940 
3.483117e-05     -9.20024     -9.20024     -9.19988    -13.59940 
7.837014e-05    -10.33217    -10.33218    -10.33148    -13.59940 
1.393247e-04    -10.23105    -10.23106    -10.22979    -13.59940 
2.176948e-04    -10.43590    -10.43591    -10.43397    -13.59940 
3.134806e-04    -10.87557    -10.87560    -10.87277    -13.59940 
4.266819e-04    -11.19781    -11.19785    -11.19414    -13.59940 
5.572988e-04    -11.40567    -11.40575    -11.40095    -13.59940 
7.053313e-04    -11.51178    -11.51185    -11.50573    -13.59940 
8.707793e-04    -11.84739    -11.84748    -11.83991    -13.59940 
    0.001054    -11.93546    -11.93556    -11.92640    -13.59940 
    0.001254    -11.95555    -11.95564    -11.94483    -13.59940 
    0.001472    -12.15384    -12.15394    -12.14127    -13.59940 
    0.001707    -12.31530    -12.31548    -12.30073    -13.59940 
    0.001959    -12.41918    -12.41953    -12.40270    -13.59940 
    0.002229    -12.52813    -12.52868    -12.50958    -13.59940 
    0.002517    -12.70816    -12.70891    -12.68731    -13.59940 
    0.002821    -12.87290    -12.87375    -12.84942    -13.59940 
    0.003144    -12.85487    -12.85569    -12.82864    -13.59940 
    0.003483    -12.98841    -12.98942    -12.95954    -13.59940 
    0.003840    -13.09056    -13.09166    -13.05866    -13.59940 
    0.004215    -13.08144    -13.08256    -13.04632    -13.59940 
    0.004606    -13.06847    -13.06982    -13.03025    -13.59940 
    0.005016    -13.03570    -13.03712    -12.99408    -13.59940 
    0.005442    -13.00770    -13.00907    -12.96235    -13.59940 
    0.005886    -12.99106    -12.99227    -12.94170    -13.59940 
    0.006348    -12.98540    -12.98665    -12.93213    -13.59940 
    0.006827    -13.00814    -13.00957    -12.95095    -13.59940 
    0.007323    -13.08110    -13.08277    -13.01989    -13.59940 
    0.007837    -13.11690    -13.11858    -13.05131    -13.59940 
    0.008368    -13.16300    -13.16477    -13.09298    -13.59940 
    0.008917    -13.18060    -13.18249    -13.10598    -13.59940 
    0.009483    -13.17838    -13.18031    -13.09897    -13.59940 
    0.010066    -13.15972    -13.16163    -13.07524    -13.59940 
    0.010667    -13.19726    -13.19950    -13.10796    -13.59940 
    0.011285    -13.26924    -13.27200    -13.17521    -13.59940 
    0.011921    -13.33179    -13.33526    -13.23299    -13.59940 
    0.012574    -13.42038    -13.42459    -13.31673    -13.59940 
    0.013245    -13.50315    -13.51855    -13.40499    -13.59940 
    0.013932    -13.54733    -13.56102    -13.44155    -13.59940 
    0.014638    -13.58466    -13.59760    -13.47206    -13.59940 
    0.015361    -13.63388    -13.64670    -13.51497    -13.59940 
    0.016101    -13.71488    -13.72867    -13.59058    -13.59940 
    0.016858    -13.76457    -13.78162    -13.63702    -13.59940 
    0.017633    -13.80049    -13.82070    -13.66944    -13.59940 
    0.018426    -13.86418    -13.88836    -13.73033    -13.59940 
    0.019236    -13.88953    -13.91602    -13.75110    -13.59940 
    0.020063    -13.91568    -13.94473    -13.77273    -13.59940 
    0.020907    -13.90380    -13.93173    -13.75244    -13.59940 
    0.021769    -13.91192    -13.93840    -13.75169    -13.59940 
    0.022649    -13.94992    -13.97890    -13.78463    -13.59940 
    0.023546    -13.97910    -14.01297    -13.81106    -13.59940 
    0.024460    -13.97522    -14.01098    -13.80112    -13.59940 
    0.025392    -13.96667    -14.00279    -13.78494    -13.59940 
    0.026341    -13.96398    -14.00113    -13.77524    -13.59940 
    0.027308    -13.96350    -13.99847    -13.76437    -13.59940 
    0.028292    -13.97876    -14.01202    -13.76944    -13.59940 
    0.029293    -13.97531    -14.00964    -13.75845    -13.59940 
    0.030312    -13.97749    -14.01257    -13.75263    -13.59940 
    0.031348    -13.95390    -13.98768    -13.71888    -13.59940 
    0.032402    -13.93518    -13.97001    -13.69213    -13.59940 
    0.033473    -13.92554    -13.96096    -13.67387    -13.59940 
    0.034561    -13.90300    -13.93598    -13.63967    -13.59940 
    0.035667    -13.87370    -13.90343    -13.59769    -13.59940 
    0.036790    -13.84948    -13.87808    -13.56262    -13.59940 
    0.037931    -13.82518    -13.85221    -13.52687    -13.59940 
    0.039089    -13.79194    -13.81690    -13.48166    -13.59940 
    0.040265    -13.78316    -13.80768    -13.46242    -13.59940 
    0.041458    -13.77767    -13.80160    -13.44609    -13.59940 
    0.042668    -13.77108    -13.79429    -13.42836    -13.59940 
    0.043896    -13.77006    -13.79378    -13.41744    -13.59940 
    0.045141    -13.77361    -13.79971    -13.41271    -13.59940 
    0.046404    -13.77263    -13.80032    -13.40247    -13.59940 
    0.047684    -13.78936    -13.81766    -13.40880    -13.59940 
    0.048981    -13.80445    -13.83323    -13.41328    -13.59940 
    0.050296    -13.83499    -13.86557    -13.43431    -13.59940 
    0.051629    -13.82088    -13.85521    -13.41251    -13.59940 
    0.052978    -13.84858    -13.88658    -13.43235    -13.59940 
    0.054345    -13.86192    -13.90413    -13.43823    -13.59940 
    0.055730    -13.86627    -13.91442    -13.43667    -13.59940 
    0.057132    -13.88631    -13.93820    -13.44838    -13.59940 
    0.058551    -13.89331    -13.94643    -13.44443    -13.59940 
    0.059988    -13.91368    -13.97163    -13.45732    -13.59940 
    0.061442    -13.92693    -13.99590    -13.46915    -13.59940 
    0.062914    -13.94204    -14.02183    -13.48243    -13.59940 
    0.064403    -13.95767    -14.04411    -13.49190    -13.59940 
    0.065909    -13.96715    -14.06195    -13.49686    -13.59940 
    0.067433    -13.95434    -14.05969    -13.48157    -13.59940 
    0.068974    -13.96723    -14.08763    -13.49633    -13.59940 
    0.070533    -13.96888    -14.10144    -13.49671    -13.59940 
    0.072109    -13.96765    -14.11464    -13.49635    -13.59940 
    0.073703    -13.98006    -14.14123    -13.50928    -13.59940 
    0.075314    -13.99060    -14.17480    -13.52906    -13.59940 
    0.076942    -13.98183    -14.18464    -13.52498    -13.59940 
    0.078588    -13.99573    -14.21800    -13.54432    -13.59940 
    0.080251    -14.00398    -14.24819    -13.56034    -13.59940 
    0.081932    -14.01156    -14.26788    -13.56557    -13.59940 
    0.083630    -14.01519    -14.28383    -13.56681    -13.59940 
    0.085345    -14.03386    -14.34059    -13.60886    -13.59940 
    0.087078    -14.02768    -14.37031    -13.62375    -13.59940 
    0.088828    -14.03490    -14.40148    -13.63994    -13.59940 
    0.090596    -14.04263    -14.42680    -13.65010    -13.59940 
    0.092381    -14.04184    -14.48727    -13.69521    -13.59940 
    0.094183    -14.03485    -14.54162    -13.73420    -13.59940 
    0.096003    -14.04219    -14.59844    -13.77542    -13.59940 
    0.097841    -14.05359    -14.62018    -13.78132    -13.59940 
    0.099696    -14.04345    -14.64802    -13.79332    -13.59940 
    0.101568    -14.05643    -14.67509    -13.80439    -13.59940 
    0.103457    -14.04618    -14.64892    -13.76197    -13.59940 
    0.105364    -14.05032    -14.67407    -13.77069    -13.59940 
    0.107289    -14.05048    -14.73578    -13.81598    -13.59940 
    0.109231    -14.04681    -14.73575    -13.79940    -13.59940 
    0.111190    -14.03909    -14.75962    -13.80648    -13.59940 
    0.113166    -14.03922    -14.80304    -13.83288    -13.59940 
    0.115161    -14.04375    -14.83583    -13.84857    -13.59940 
    0.117172    -14.04934    -14.96610    -13.96163    -13.59940 
    0.119201    -14.04192    -15.03923    -14.01732    -13.59940 
    0.121247    -14.04110    -14.92490    -13.88543    -13.59940 
    0.123311    -14.04312    -14.79675    -13.73968    -13.59940 
    0.125392    -14.04188    -14.79965    -13.72475    -13.59940 
    0.127491    -14.04522    -14.88016    -13.78723    -13.59940 
    0.129607    -14.04810    -14.90986    -13.79874    -13.59940 
    0.131740    -14.04062    -14.98162    -13.85223    -13.59940 
    0.133891    -14.03615    -15.06250    -13.91472    -13.59940 
    0.136059    -14.04356    -15.11555    -13.94912    -13.59940 
    0.138245    -14.03880    -15.00195    -13.81676    -13.59940 
    0.140448    -14.03416    -15.01940    -13.81542    -13.59940 
    0.142668    -14.03932    -15.05382    -13.83084    -13.59940 
    0.144906    -14.04160    -15.09798    -13.85573    -13.59940 
    0.147162    -14.02590    -15.16599    -13.90438    -13.59940 
    0.149434    -14.03734    -15.24875    -13.96769    -13.59940 
    0.151725    -14.03043    -15.10691    -13.80624    -13.59940 
    0.154032    -14.03498    -15.11957    -13.79908    -13.59940 
    0.156357    -14.03643    -15.16328    -13.82288    -13.59940 
    0.158700    -14.03153    -15.14658    -13.78613    -13.59940 
    0.161059    -14.03247    -15.11675    -13.73611    -13.59940 
    0.163437    -14.02160    -15.09741    -13.69626    -13.59940 
    0.165831    -14.03176    -15.06620    -13.64449    -13.59940 
    0.168243    -14.02299    -15.06699    -13.62469    -13.59940 
    0.170673    -14.02955    -15.20066    -13.73759    -13.59940 
    0.173120    -14.02719    -15.25178    -13.76770    -13.59940 
    0.175584    -14.02769    -15.12400    -13.61876    -13.59940 
    0.178066    -14.02426    -15.07361    -13.54716    -13.59940 
    0.180565    -14.02379    -15.06661    -13.51884    -13.59940 
    0.183081    -14.02548    -15.09481    -13.52546    -13.59940 
    0.185615    -14.02505    -15.04128    -13.45012    -13.59940 
    0.188167    -14.02362    -14.94083    -13.32780    -13.59940 
    0.190736    -14.02556    -15.00716    -13.37203    -13.59940 
    0.193322    -14.02416    -15.18975    -13.53244    -13.59940 
    0.195925    -14.01963    -15.28598    -13.60632    -13.59940 
    0.198546    -14.02350    -15.13099    -13.42888    -13.59940 
    0.201185    -14.01955    -15.03235    -13.30770    -13.59940 
    0.203841    -14.02392    -15.02852    -13.28112    -13.59940 
    0.206514    -14.02855    -15.14142    -13.37103    -13.59940 
    0.209205    -14.02177    -15.27598    -13.48256    -13.59940 
    0.211913    -14.02312    -15.22741    -13.41080    -13.59940 
    0.214638    -14.01992    -15.12058    -13.28057    -13.59940 
    0.217381    -14.00170    -15.06232    -13.19872    -13.59940 
    0.220142    -13.90713    -14.96756    -13.07974    -13.59940 
    0.222920    -13.71573    -14.79469    -13.49218    -13.59940 
 
