# RELION postprocess; version 4.0-beta-2
# --mask mask.mrc --i output/_iter8_half1.mrc --i2 output/_iter8_half2.mrc --o output/_postprocess_iter8/iter8 --angpix 1.059 --auto_bfac --autob_lowres 10 

# version 30001

data_general

_rlnFinalResolution                               3.025714
_rlnBfactorUsedForSharpening                     -34.74856
_rlnUnfilteredMapHalf1                        output/_iter8_half1.mrc
_rlnUnfilteredMapHalf2                        output/_iter8_half2.mrc
_rlnPostprocessedMap                          output/_postprocess_iter8/iter8.mrc
_rlnParticleBoxFractionSolventMask               20.686732
_rlnMaskName                                  mask.mrc
_rlnRandomiseFrom                                 9.413333
_rlnPostprocessedMapMasked                    output/_postprocess_iter8/iter8_masked.mrc
_rlnFittedSlopeGuinierPlot                        -8.68714
_rlnFittedInterceptGuinierPlot                   -13.55011
_rlnCorrelationFitGuinierPlot                     0.869034
 

# version 30001

data_fsc

loop_ 
_rlnSpectralIndex #1 
_rlnResolution #2 
_rlnAngstromResolution #3 
_rlnFourierShellCorrelationCorrected #4 
_rlnFourierShellCorrelationParticleMaskFraction #5 
_rlnFourierShellCorrelationUnmaskedMaps #6 
_rlnFourierShellCorrelationMaskedMaps #7 
_rlnCorrectedFourierShellCorrelationPhaseRandomizedMaskedMaps #8 
           0     0.001001   999.000000     1.000000     1.000000     1.000000     1.000000     1.000000 
           1     0.002951   338.880005     1.000000     0.999963     0.999231     1.000000     1.000000 
           2     0.005902   169.440002     0.999996     0.999991     0.999812     0.999996     0.999997 
           3     0.008853   112.960002     0.999957     0.999849     0.996881     0.999957     0.999966 
           4     0.011804    84.720001     0.999962     0.999932     0.998593     0.999962     0.999958 
           5     0.014754    67.776001     0.999928     0.999915     0.998254     0.999928     0.999935 
           6     0.017705    56.480001     0.999874     0.999827     0.996439     0.999874     0.999883 
           7     0.020656    48.411429     0.999772     0.999721     0.994267     0.999772     0.999784 
           8     0.023607    42.360001     0.999691     0.999717     0.994188     0.999691     0.999708 
           9     0.026558    37.653334     0.999699     0.999683     0.993482     0.999699     0.999704 
          10     0.029509    33.888000     0.999555     0.999366     0.987050     0.999555     0.999567 
          11     0.032460    30.807273     0.999453     0.999570     0.991175     0.999453     0.999446 
          12     0.035411    28.240000     0.999468     0.999458     0.988909     0.999468     0.999467 
          13     0.038362    26.067693     0.999423     0.999402     0.987768     0.999423     0.999466 
          14     0.041313    24.205715     0.999166     0.999081     0.981322     0.999166     0.999161 
          15     0.044263    22.592000     0.998475     0.998419     0.968272     0.998475     0.998349 
          16     0.047214    21.180000     0.997521     0.997809     0.956555     0.997521     0.997406 
          17     0.050165    19.934118     0.996511     0.996654     0.935061     0.996511     0.996464 
          18     0.053116    18.826667     0.995884     0.995144     0.908310     0.995884     0.995830 
          19     0.056067    17.835790     0.996262     0.995444     0.913510     0.996262     0.996061 
          20     0.059018    16.944000     0.995682     0.994247     0.893097     0.995682     0.995534 
          21     0.061969    16.137143     0.995290     0.993893     0.887225     0.995290     0.995287 
          22     0.064920    15.403637     0.995230     0.993248     0.876710     0.995230     0.995021 
          23     0.067871    14.733913     0.994157     0.991275     0.845962     0.994157     0.993633 
          24     0.070822    14.120000     0.993204     0.992303     0.861734     0.993204     0.992897 
          25     0.073772    13.555200     0.993130     0.992968     0.872226     0.993130     0.993005 
          26     0.076723    13.033846     0.993754     0.994300     0.893979     0.993754     0.993531 
          27     0.079674    12.551111     0.993689     0.993962     0.888362     0.993689     0.993481 
          28     0.082625    12.102857     0.992902     0.993143     0.875028     0.992902     0.992684 
          29     0.085576    11.685517     0.992078     0.991887     0.855276     0.992078     0.991552 
          30     0.088527    11.296000     0.991876     0.991836     0.854505     0.991876     0.990965 
          31     0.091478    10.931613     0.991037     0.991064     0.842805     0.991037     0.989595 
          32     0.094429    10.590000     0.990460     0.990000     0.827153     0.990460     0.988696 
          33     0.097380    10.269091     0.990279     0.989909     0.825846     0.990279     0.988192 
          34     0.100330     9.967059     0.990651     0.989898     0.825691     0.990651     0.986795 
          35     0.103281     9.682286     0.989186     0.988736     0.809274     0.989186     0.977978 
          36     0.106232     9.413333     0.986697     0.986265     0.776340     0.986697     0.946789 
          37     0.109183     9.158919     0.983596     0.984127     0.749818     0.983596     0.842980 
          38     0.112134     8.917895     0.943884     0.981890     0.723827     0.980355     0.649933 
          39     0.115085     8.689231     0.953222     0.977537     0.677796     0.977936     0.528322 
          40     0.118036     8.472000     0.949771     0.975040     0.653780     0.974770     0.497693 
          41     0.120987     8.265366     0.947437     0.970671     0.615368     0.971994     0.467206 
          42     0.123938     8.068572     0.942560     0.967497     0.589981     0.967694     0.437561 
          43     0.126889     7.880930     0.936255     0.959922     0.536568     0.962446     0.410867 
          44     0.129839     7.701818     0.925880     0.952855     0.494188     0.955865     0.404548 
          45     0.132790     7.530667     0.917102     0.945626     0.456724     0.948326     0.376655 
          46     0.135741     7.366957     0.904080     0.929272     0.388425     0.936074     0.333555 
          47     0.138692     7.210213     0.889556     0.929751     0.390166     0.926225     0.332011 
          48     0.141643     7.060000     0.875042     0.923248     0.367683     0.915296     0.322138 
          49     0.144594     6.915918     0.877078     0.919569     0.355949     0.914144     0.301536 
          50     0.147545     6.777600     0.885495     0.921136     0.360864     0.916534     0.271071 
          51     0.150496     6.644706     0.881241     0.906316     0.318639     0.910605     0.247258 
          52     0.153447     6.516923     0.868677     0.899760     0.302603     0.896469     0.211627 
          53     0.156398     6.393962     0.858748     0.888869     0.278834     0.886387     0.195671 
          54     0.159348     6.275556     0.853837     0.886773     0.274622     0.880890     0.185086 
          55     0.162299     6.161455     0.848111     0.886153     0.273396     0.873575     0.167650 
          56     0.165250     6.051429     0.856652     0.881301     0.264115     0.875017     0.128114 
          57     0.168201     5.945263     0.858994     0.878276     0.258595     0.875232     0.115159 
          58     0.171152     5.842759     0.855004     0.885662     0.272432     0.870598     0.107547 
          59     0.174103     5.743729     0.851838     0.886956     0.274986     0.865823     0.094387 
          60     0.177054     5.648000     0.856279     0.884329     0.269844     0.869611     0.092764 
          61     0.180005     5.555410     0.854559     0.875406     0.253531     0.868457     0.095560 
          62     0.182956     5.465807     0.855331     0.881673     0.264808     0.867075     0.081180 
          63     0.185907     5.379048     0.863099     0.895597     0.293123     0.873270     0.074296 
          64     0.188857     5.295000     0.874893     0.901796     0.307433     0.884704     0.078421 
          65     0.191808     5.213539     0.879632     0.904169     0.313229     0.887922     0.068875 
          66     0.194759     5.134546     0.884625     0.907645     0.322068     0.890805     0.053557 
          67     0.197710     5.057911     0.887245     0.917377     0.349269     0.893760     0.057778 
          68     0.200661     4.983529     0.888323     0.914385     0.340492     0.893565     0.046939 
          69     0.203612     4.911304     0.893412     0.916706     0.347266     0.896578     0.029703 
          70     0.206563     4.841143     0.897567     0.915518     0.343768     0.899369     0.017589 
          71     0.209514     4.772958     0.894277     0.918212     0.351786     0.897630     0.031713 
          72     0.212465     4.706667     0.886306     0.916892     0.347818     0.890647     0.038175 
          73     0.215415     4.642192     0.877953     0.909678     0.327441     0.881689     0.030608 
          74     0.218366     4.579460     0.877709     0.898475     0.299621     0.879106     0.011420 
          75     0.221317     4.518400     0.876154     0.903842     0.312420     0.876648     0.003991 
          76     0.224268     4.458947     0.867415     0.890715     0.282636     0.868370     0.007203 
          77     0.227219     4.401039     0.849597     0.872486     0.248547     0.853413     0.025367 
          78     0.230170     4.344615     0.832275     0.872516     0.248599     0.835980     0.022087 
          79     0.233121     4.289620     0.817576     0.856376     0.223744     0.820480     0.015917 
          80     0.236072     4.236000     0.800598     0.850456     0.215632     0.802689     0.010486 
          81     0.239023     4.183704     0.786925     0.832224     0.193407     0.788781     0.008714 
          82     0.241974     4.132683     0.779549     0.827479     0.188218     0.781256     0.007740 
          83     0.244924     4.082892     0.763933     0.813842     0.174463     0.767344     0.014449 
          84     0.247875     4.034286     0.731002     0.792493     0.155845     0.734508     0.013034 
          85     0.250826     3.986824     0.701737     0.775326     0.142968     0.704039     0.007719 
          86     0.253777     3.940465     0.680549     0.767137     0.137373     0.684099     0.011112 
          87     0.256728     3.895172     0.658538     0.742829     0.122521     0.661919     0.009902 
          88     0.259679     3.850909     0.637078     0.747038     0.124923     0.638792     0.004725 
          89     0.262630     3.807641     0.613999     0.724435     0.112753     0.613024     -0.00253 
          90     0.265581     3.765333     0.594287     0.728365     0.114746     0.593059     -0.00303 
          91     0.268532     3.723956     0.563811     0.711482     0.106510     0.566547     0.006271 
          92     0.271483     3.683478     0.527431     0.689967     0.097130     0.533964     0.013825 
          93     0.274433     3.643871     0.493458     0.614850     0.071641     0.500698     0.014293 
          94     0.277384     3.605106     0.466652     0.671072     0.089769     0.470202     0.006656 
          95     0.280335     3.567158     0.441056     0.678030     0.092393     0.442558     0.002687 
          96     0.283286     3.530000     0.402816     0.616962     0.072237     0.407410     0.007691 
          97     0.286237     3.493608     0.375131     0.641785     0.079704     0.384608     0.015167 
          98     0.289188     3.457959     0.363612     0.574468     0.061261     0.374880     0.017706 
          99     0.292139     3.423030     0.336571     0.536835     0.053056     0.342727     0.009280 
         100     0.295090     3.388800     0.309397     0.610981     0.070564     0.311342     0.002816 
         101     0.298041     3.355248     0.280862     0.569572     0.060121     0.286469     0.007796 
         102     0.300991     3.322353     0.267244     0.522162     0.050174     0.272908     0.007730 
         103     0.303942     3.290097     0.228926     0.549074     0.055590     0.231969     0.003946 
         104     0.306893     3.258462     0.198184     0.508604     0.047649     0.201540     0.004186 
         105     0.309844     3.227429     0.177545     0.529871     0.051668     0.181588     0.004915 
         106     0.312795     3.196981     0.179996     0.497394     0.045655     0.179823 -2.10977e-04 
         107     0.315746     3.167103     0.173020     0.503753     0.046776     0.171440     -0.00191 
         108     0.318697     3.137778     0.163838     0.467362     0.040690     0.158620     -0.00624 
         109     0.321648     3.108991     0.161078     0.490969     0.044548     0.151069     -0.01193 
         110     0.324599     3.080727     0.160027     0.433099     0.035615     0.146478     -0.01613 
         111     0.327550     3.052973     0.155864     0.468432     0.040858     0.138410     -0.02068 
         112     0.330500     3.025714     0.144009     0.515886     0.048989     0.131392     -0.01474 
         113     0.333451     2.998938     0.131700     0.509268     0.047770     0.121913     -0.01127 
         114     0.336402     2.972632     0.116625     0.517985     0.049382     0.109557     -0.00800 
         115     0.339353     2.946783     0.099162     0.493921     0.045053     0.099496 3.707170e-04 
         116     0.342304     2.921379     0.071188     0.424367     0.034411     0.074771     0.003857 
         117     0.345255     2.896410     0.051842     0.457603     0.039185     0.059379     0.007950 
         118     0.348206     2.871864     0.064530     0.454139     0.038663     0.075030     0.011224 
         119     0.351157     2.847731     0.092262     0.449678     0.037999     0.101243     0.009894 
         120     0.354108     2.824000     0.093842     0.491333     0.044610     0.101866     0.008855 
         121     0.357059     2.800661     0.080143     0.480619     0.042817     0.089660     0.010346 
         122     0.360009     2.777705     0.080554     0.427872     0.034890     0.086680     0.006662 
         123     0.362960     2.755122     0.079470     0.372420     0.027886     0.073198     -0.00681 
         124     0.365911     2.732903     0.069428     0.460341     0.039602     0.060650     -0.00943 
         125     0.368862     2.711040     0.047015     0.434218     0.035772     0.041667     -0.00561 
         126     0.371813     2.689524     0.040305     0.424110     0.034376     0.042091     0.001861 
         127     0.374764     2.668346     0.050372     0.453748     0.038604     0.049784 -6.19718e-04 
         128     0.377715     2.647500     0.056972     0.391391     0.030150     0.054306     -0.00283 
         129     0.380666     2.626977     0.058038     0.427415     0.034828     0.055920     -0.00225 
         130     0.383617     2.606769     0.051941     0.512411     0.048345     0.051144 -8.41405e-04 
         131     0.386568     2.586870     0.051194     0.456810     0.039065     0.046921     -0.00450 
         132     0.389518     2.567273     0.062281     0.437621     0.036253     0.056099     -0.00659 
         133     0.392469     2.547970     0.056900     0.459294     0.039442     0.053660     -0.00343 
         134     0.395420     2.528955     0.045191     0.366344     0.027188     0.044253 -9.81772e-04 
         135     0.398371     2.510222     0.050916     0.406006     0.031985     0.045369     -0.00584 
         136     0.401322     2.491765     0.055828     0.416896     0.033407     0.051214     -0.00489 
         137     0.404273     2.473577     0.053593     0.505060     0.047010     0.050205     -0.00358 
         138     0.407224     2.455652     0.049170     0.456716     0.039051     0.048447 -7.60018e-04 
         139     0.410175     2.437986     0.051374     0.455348     0.038844     0.047654     -0.00392 
         140     0.413126     2.420571     0.047262     0.434443     0.035804     0.039027     -0.00864 
         141     0.416076     2.403404     0.037498     0.365599     0.027103     0.032376     -0.00532 
         142     0.419027     2.386479     0.043704     0.410224     0.032530     0.042202     -0.00157 
         143     0.421978     2.369790     0.053206     0.448971     0.037894     0.060357     0.007553 
         144     0.424929     2.353333     0.057805     0.430364     0.035235     0.065362     0.008021 
         145     0.427880     2.337103     0.053694     0.433220     0.035632     0.058753     0.005346 
         146     0.430831     2.321096     0.049970     0.418549     0.033627     0.061284     0.011909 
         147     0.433782     2.305306     0.054296     0.445834     0.037435     0.068262     0.014768 
         148     0.436733     2.289730     0.055451     0.405982     0.031981     0.063496     0.008517 
         149     0.439684     2.274362     0.042464     0.350634     0.025438     0.046652     0.004374 
         150     0.442635     2.259200     0.031931     0.448459     0.037819     0.037289     0.005534 
         151     0.445585     2.244238     0.038950     0.368679     0.027455     0.042265     0.003449 
         152     0.448536     2.229474     0.051597     0.396414     0.030771     0.051663 6.949954e-05 
         153     0.451487     2.214902     0.062248     0.394416     0.030523     0.059592     -0.00283 
         154     0.454438     2.200520     0.047355     0.357511     0.026194     0.052750     0.005663 
         155     0.457389     2.186323     0.036116     0.416368     0.033337     0.042440     0.006561 
         156     0.460340     2.172308     0.052269     0.410206     0.032527     0.049456     -0.00297 
         157     0.463291     2.158471     0.076705     0.401721     0.031438     0.066019     -0.01157 
         158     0.466242     2.144810     0.070999     0.408060     0.032249     0.059632     -0.01224 
         159     0.469193     2.131321     0.055644     0.402387     0.031523     0.050916     -0.00501 
         160     0.472144     2.118000     0.046144     0.369701     0.027572     0.048855     0.002842 
 

# version 30001

data_guinier

loop_ 
_rlnResolutionSquared #1 
_rlnLogAmplitudesOriginal #2 
_rlnLogAmplitudesWeighted #3 
_rlnLogAmplitudesSharpened #4 
_rlnLogAmplitudesIntercept #5 
    0.000000    -11.62446    -11.62446    -11.62446    -13.55011 
8.707793e-06     -9.05789     -9.05789     -9.05777    -13.55011 
3.483117e-05     -9.19648     -9.19648     -9.19611    -13.55011 
7.837014e-05    -10.33442    -10.33443    -10.33372    -13.55011 
1.393247e-04    -10.22921    -10.22922    -10.22794    -13.55011 
2.176948e-04    -10.43447    -10.43449    -10.43253    -13.55011 
3.134806e-04    -10.87633    -10.87636    -10.87350    -13.55011 
4.266819e-04    -11.19538    -11.19544    -11.19167    -13.55011 
5.572988e-04    -11.40301    -11.40308    -11.39823    -13.55011 
7.053313e-04    -11.51215    -11.51222    -11.50603    -13.55011 
8.707793e-04    -11.85098    -11.85109    -11.84341    -13.55011 
    0.001054    -11.93380    -11.93394    -11.92465    -13.55011 
    0.001254    -11.95592    -11.95605    -11.94510    -13.55011 
    0.001472    -12.15274    -12.15288    -12.14004    -13.55011 
    0.001707    -12.31226    -12.31247    -12.29752    -13.55011 
    0.001959    -12.42216    -12.42254    -12.40549    -13.55011 
    0.002229    -12.52280    -12.52342    -12.50406    -13.55011 
    0.002517    -12.70283    -12.70370    -12.68181    -13.55011 
    0.002821    -12.86676    -12.86780    -12.84315    -13.55011 
    0.003144    -12.85042    -12.85136    -12.82394    -13.55011 
    0.003483    -12.98680    -12.98789    -12.95760    -13.55011 
    0.003840    -13.09201    -13.09319    -13.05975    -13.55011 
    0.004215    -13.07667    -13.07787    -13.04114    -13.55011 
    0.004606    -13.06212    -13.06359    -13.02349    -13.55011 
    0.005016    -13.03523    -13.03693    -12.99331    -13.55011 
    0.005442    -13.00797    -13.00970    -12.96234    -13.55011 
    0.005886    -12.98960    -12.99117    -12.93991    -13.55011 
    0.006348    -12.98173    -12.98332    -12.92806    -13.55011 
    0.006827    -13.00465    -13.00643    -12.94701    -13.55011 
    0.007323    -13.07714    -13.07913    -13.01540    -13.55011 
    0.007837    -13.11348    -13.11552    -13.04734    -13.55011 
    0.008368    -13.15865    -13.16091    -13.08814    -13.55011 
    0.008917    -13.17088    -13.17328    -13.09575    -13.55011 
    0.009483    -13.17026    -13.17271    -13.09027    -13.55011 
    0.010066    -13.15043    -13.15278    -13.06524    -13.55011 
    0.010667    -13.18584    -13.18857    -13.09580    -13.55011 
    0.011285    -13.25774    -13.26110    -13.16301    -13.55011 
    0.011921    -13.32121    -13.32536    -13.22170    -13.55011 
    0.012574    -13.40495    -13.41960    -13.31029    -13.55011 
    0.013245    -13.48673    -13.49885    -13.38376    -13.55011 
    0.013932    -13.52819    -13.54124    -13.42017    -13.55011 
    0.014638    -13.56014    -13.57382    -13.44660    -13.55011 
    0.015361    -13.60614    -13.62114    -13.48764    -13.55011 
    0.016101    -13.68799    -13.70473    -13.56477    -13.55011 
    0.016858    -13.73617    -13.75579    -13.60925    -13.55011 
    0.017633    -13.76823    -13.79034    -13.63705    -13.55011 
    0.018426    -13.82362    -13.84946    -13.68931    -13.55011 
    0.019236    -13.84620    -13.87632    -13.70919    -13.55011 
    0.020063    -13.86251    -13.89700    -13.72269    -13.55011 
    0.020907    -13.86505    -13.89891    -13.71720    -13.55011 
    0.021769    -13.86855    -13.89987    -13.71063    -13.55011 
    0.022649    -13.90269    -13.93530    -13.73840    -13.55011 
    0.023546    -13.92306    -13.95949    -13.75488    -13.55011 
    0.024460    -13.92464    -13.96415    -13.75149    -13.55011 
    0.025392    -13.91291    -13.95397    -13.73319    -13.55011 
    0.026341    -13.89827    -13.94115    -13.71224    -13.55011 
    0.027308    -13.90937    -13.94954    -13.71229    -13.55011 
    0.028292    -13.91731    -13.95675    -13.71091    -13.55011 
    0.029293    -13.91744    -13.95813    -13.70357    -13.55011 
    0.030312    -13.91298    -13.95467    -13.69124    -13.55011 
    0.031348    -13.89322    -13.93351    -13.66109    -13.55011 
    0.032402    -13.88263    -13.92347    -13.64185    -13.55011 
    0.033473    -13.86465    -13.90524    -13.61429    -13.55011 
    0.034561    -13.84005    -13.87821    -13.57789    -13.55011 
    0.035667    -13.82146    -13.85599    -13.54613    -13.55011 
    0.036790    -13.79584    -13.82893    -13.50923    -13.55011 
    0.037931    -13.76721    -13.79879    -13.46909    -13.55011 
    0.039089    -13.74839    -13.77919    -13.43946    -13.55011 
    0.040265    -13.73715    -13.76763    -13.41772    -13.55011 
    0.041458    -13.73509    -13.76407    -13.40376    -13.55011 
    0.042668    -13.72783    -13.75558    -13.38473    -13.55011 
    0.043896    -13.72469    -13.75341    -13.37200    -13.55011 
    0.045141    -13.71986    -13.75095    -13.35874    -13.55011 
    0.046404    -13.72157    -13.75517    -13.35197    -13.55011 
    0.047684    -13.74024    -13.77391    -13.35955    -13.55011 
    0.048981    -13.75741    -13.79155    -13.36596    -13.55011 
    0.050296    -13.78117    -13.81799    -13.38091    -13.55011 
    0.051629    -13.76018    -13.80259    -13.35394    -13.55011 
    0.052978    -13.79458    -13.84258    -13.38225    -13.55011 
    0.054345    -13.81114    -13.86402    -13.39186    -13.55011 
    0.055730    -13.81741    -13.87609    -13.39191    -13.55011 
    0.057132    -13.83514    -13.89863    -13.40224    -13.55011 
    0.058551    -13.84138    -13.90751    -13.39875    -13.55011 
    0.059988    -13.85696    -13.92879    -13.40756    -13.55011 
    0.061442    -13.86213    -13.94658    -13.41275    -13.55011 
    0.062914    -13.87378    -13.97013    -13.42347    -13.55011 
    0.064403    -13.88861    -13.99403    -13.43438    -13.55011 
    0.065909    -13.89067    -14.00593    -13.43324    -13.55011 
    0.067433    -13.87561    -14.00092    -13.41502    -13.55011 
    0.068974    -13.88612    -14.02278    -13.42351    -13.55011 
    0.070533    -13.86932    -14.01616    -13.40328    -13.55011 
    0.072109    -13.86957    -14.03308    -13.40647    -13.55011 
    0.073703    -13.87708    -14.06217    -13.42172    -13.55011 
    0.075314    -13.88587    -14.09300    -13.43855    -13.55011 
    0.076942    -13.88222    -14.10822    -13.43968    -13.55011 
    0.078588    -13.89051    -14.13592    -13.45317    -13.55011 
    0.080251    -13.90055    -14.17785    -13.48075    -13.55011 
    0.081932    -13.90650    -14.20944    -13.49770    -13.55011 
    0.083630    -13.91348    -14.22781    -13.50115    -13.55011 
    0.085345    -13.92800    -14.27095    -13.52938    -13.55011 
    0.087078    -13.92712    -14.30189    -13.54531    -13.55011 
    0.088828    -13.92689    -14.33903    -13.56724    -13.55011 
    0.090596    -13.94030    -14.37194    -13.58480    -13.55011 
    0.092381    -13.93876    -14.43243    -13.62973    -13.55011 
    0.094183    -13.93403    -14.48714    -13.66888    -13.55011 
    0.096003    -13.94086    -14.54027    -13.70617    -13.55011 
    0.097841    -13.95319    -14.54678    -13.69664    -13.55011 
    0.099696    -13.94148    -14.55188    -13.68570    -13.55011 
    0.101568    -13.95088    -14.58460    -13.70219    -13.55011 
    0.103457    -13.94365    -14.58468    -13.68580    -13.55011 
    0.105364    -13.94631    -14.59016    -13.67464    -13.55011 
    0.107289    -13.95012    -14.60536    -13.67319    -13.55011 
    0.109231    -13.94505    -14.63469    -13.68573    -13.55011 
    0.111190    -13.94241    -14.67131    -13.70536    -13.55011 
    0.113166    -13.93714    -14.72011    -13.73689    -13.55011 
    0.115161    -13.94253    -14.79873    -13.79819    -13.55011 
    0.117172    -13.94794    -14.95697    -13.93901    -13.55011 
    0.119201    -13.93730    -15.09577    -14.06010    -13.55011 
    0.121247    -13.94003    -14.99504    -13.94161    -13.55011 
    0.123311    -13.93985    -14.82896    -13.75768    -13.55011 
    0.125392    -13.93619    -14.81753    -13.72819    -13.55011 
    0.127491    -13.93773    -14.89167    -13.78406    -13.55011 
    0.129607    -13.94266    -14.89423    -13.76817    -13.55011 
    0.131740    -13.93995    -14.89780    -13.75321    -13.55011 
    0.133891    -13.93562    -14.95635    -13.79314    -13.55011 
    0.136059    -13.94062    -15.14567    -13.96355    -13.55011 
    0.138245    -13.93441    -15.21323    -14.01208    -13.55011 
    0.140448    -13.93228    -15.10444    -13.88426    -13.55011 
    0.142668    -13.93973    -15.05345    -13.81403    -13.55011 
    0.144906    -13.93668    -15.04165    -13.78269    -13.55011 
    0.147162    -13.92209    -15.07966    -13.80109    -13.55011 
    0.149434    -13.93388    -15.09834    -13.80006    -13.55011 
    0.151725    -13.92967    -15.00135    -13.68316    -13.55011 
    0.154032    -13.93133    -15.04566    -13.70741    -13.55011 
    0.156357    -13.93475    -15.15871    -13.80026    -13.55011 
    0.158700    -13.93045    -15.09750    -13.71876    -13.55011 
    0.161059    -13.92788    -15.05121    -13.65198    -13.55011 
    0.163437    -13.91747    -15.06017    -13.64017    -13.55011 
    0.165831    -13.92443    -15.10810    -13.66727    -13.55011 
    0.168243    -13.92142    -15.08421    -13.62252    -13.55011 
    0.170673    -13.92697    -15.12951    -13.64674    -13.55011 
    0.173120    -13.92770    -15.24127    -13.73722    -13.55011 
    0.175584    -13.92361    -15.16358    -13.63810    -13.55011 
    0.178066    -13.91753    -15.06366    -13.51668    -13.55011 
    0.180565    -13.91713    -15.02400    -13.45542    -13.55011 
    0.183081    -13.92013    -15.06193    -13.47148    -13.55011 
    0.185615    -13.92377    -15.09974    -13.48718    -13.55011 
    0.188167    -13.92229    -15.05880    -13.42407    -13.55011 
    0.190736    -13.92232    -15.04885    -13.39174    -13.55011 
    0.193322    -13.92561    -15.17938    -13.49979    -13.55011 
    0.195925    -13.91714    -15.30837    -13.60611    -13.55011 
    0.198546    -13.92019    -15.21546    -13.49045    -13.55011 
    0.201185    -13.91681    -15.07753    -13.32967    -13.55011 
    0.203841    -13.92057    -14.99251    -13.22160    -13.55011 
    0.206514    -13.92233    -15.12393    -13.32972    -13.55011 
    0.209205    -13.91918    -15.25086    -13.43330    -13.55011 
    0.211913    -13.92056    -15.07514    -13.23409    -13.55011 
    0.214638    -13.91882    -14.89309    -13.02835    -13.55011 
    0.217381    -13.89938    -14.90965    -13.02100    -13.55011 
    0.220142    -13.80286    -14.92776    -13.01453    -13.55011 
    0.222920    -13.61359    -14.82757    -13.49979    -13.55011 
 
