# RELION postprocess; version 4.0-beta-2
# --mask mask.mrc --i output/_iter6_half1.mrc --i2 output/_iter6_half2.mrc --o output/_postprocess_iter6/iter6 --angpix 1.059 --auto_bfac --autob_lowres 10 

# version 30001

data_general

_rlnFinalResolution                               3.080727
_rlnBfactorUsedForSharpening                     -33.65811
_rlnUnfilteredMapHalf1                        output/_iter6_half1.mrc
_rlnUnfilteredMapHalf2                        output/_iter6_half2.mrc
_rlnPostprocessedMap                          output/_postprocess_iter6/iter6.mrc
_rlnParticleBoxFractionSolventMask               20.686732
_rlnMaskName                                  mask.mrc
_rlnRandomiseFrom                                 8.917895
_rlnPostprocessedMapMasked                    output/_postprocess_iter6/iter6_masked.mrc
_rlnFittedSlopeGuinierPlot                        -8.41453
_rlnFittedInterceptGuinierPlot                   -13.65547
_rlnCorrelationFitGuinierPlot                     0.861444
 

# version 30001

data_fsc

loop_ 
_rlnSpectralIndex #1 
_rlnResolution #2 
_rlnAngstromResolution #3 
_rlnFourierShellCorrelationCorrected #4 
_rlnFourierShellCorrelationParticleMaskFraction #5 
_rlnFourierShellCorrelationUnmaskedMaps #6 
_rlnFourierShellCorrelationMaskedMaps #7 
_rlnCorrectedFourierShellCorrelationPhaseRandomizedMaskedMaps #8 
           0     0.001001   999.000000     1.000000     1.000000     1.000000     1.000000     1.000000 
           1     0.002951   338.880005     0.999998     0.999974     0.999467     0.999998     0.999998 
           2     0.005902   169.440002     0.999991     0.999994     0.999872     0.999991     0.999991 
           3     0.008853   112.960002     0.999960     0.999891     0.997760     0.999960     0.999957 
           4     0.011804    84.720001     0.999980     0.999947     0.998908     0.999980     0.999980 
           5     0.014754    67.776001     0.999965     0.999948     0.998927     0.999965     0.999972 
           6     0.017705    56.480001     0.999914     0.999886     0.997653     0.999914     0.999920 
           7     0.020656    48.411429     0.999833     0.999823     0.996361     0.999833     0.999832 
           8     0.023607    42.360001     0.999763     0.999840     0.996696     0.999763     0.999767 
           9     0.026558    37.653334     0.999773     0.999806     0.995999     0.999773     0.999779 
          10     0.029509    33.888000     0.999622     0.999591     0.991604     0.999622     0.999627 
          11     0.032460    30.807273     0.999558     0.999690     0.993623     0.999558     0.999541 
          12     0.035411    28.240000     0.999650     0.999651     0.992836     0.999650     0.999623 
          13     0.038362    26.067693     0.999690     0.999609     0.991971     0.999690     0.999652 
          14     0.041313    24.205715     0.999427     0.999363     0.986994     0.999427     0.999397 
          15     0.044263    22.592000     0.998733     0.999014     0.979984     0.998733     0.998709 
          16     0.047214    21.180000     0.997890     0.998610     0.972007     0.997890     0.997847 
          17     0.050165    19.934118     0.997186     0.997760     0.955622     0.997186     0.997082 
          18     0.053116    18.826667     0.996776     0.996799     0.937701     0.996776     0.996641 
          19     0.056067    17.835790     0.996807     0.996998     0.941371     0.996807     0.996782 
          20     0.059018    16.944000     0.996264     0.996138     0.925756     0.996264     0.996316 
          21     0.061969    16.137143     0.995979     0.996100     0.925081     0.995979     0.995948 
          22     0.064920    15.403637     0.995954     0.995680     0.917639     0.995954     0.995977 
          23     0.067871    14.733913     0.995640     0.994261     0.893324     0.995640     0.995581 
          24     0.070822    14.120000     0.995728     0.994756     0.901677     0.995728     0.995574 
          25     0.073772    13.555200     0.995700     0.995619     0.916564     0.995700     0.995594 
          26     0.076723    13.033846     0.995967     0.995896     0.921445     0.995967     0.995884 
          27     0.079674    12.551111     0.995944     0.996175     0.926413     0.995944     0.995836 
          28     0.082625    12.102857     0.995206     0.995476     0.914070     0.995206     0.995146 
          29     0.085576    11.685517     0.994491     0.994765     0.901816     0.994491     0.994580 
          30     0.088527    11.296000     0.994758     0.994637     0.899654     0.994758     0.994678 
          31     0.091478    10.931613     0.994600     0.994168     0.891772     0.994600     0.994093 
          32     0.094429    10.590000     0.994207     0.993576     0.882029     0.994207     0.993515 
          33     0.097380    10.269091     0.994168     0.993307     0.877659     0.994168     0.993514 
          34     0.100330     9.967059     0.994322     0.993552     0.881632     0.994322     0.993645 
          35     0.103281     9.682286     0.993315     0.992738     0.868562     0.993315     0.992231 
          36     0.106232     9.413333     0.991512     0.991204     0.844894     0.991512     0.988977 
          37     0.109183     9.158919     0.988960     0.989728     0.823249     0.988960     0.979327 
          38     0.112134     8.917895     0.986408     0.987632     0.794245     0.986408     0.946264 
          39     0.115085     8.689231     0.984262     0.985170     0.762548     0.984262     0.843624 
          40     0.118036     8.472000     0.942224     0.982634     0.732286     0.982276     0.693232 
          41     0.120987     8.265366     0.946468     0.980258     0.705908     0.980286     0.631741 
          42     0.123938     8.068572     0.950028     0.978385     0.686330     0.978069     0.561124 
          43     0.126889     7.880930     0.947857     0.972891     0.634343     0.974023     0.501815 
          44     0.129839     7.701818     0.936270     0.968290     0.596144     0.968180     0.500708 
          45     0.132790     7.530667     0.925479     0.963307     0.559290     0.962180     0.492497 
          46     0.135741     7.366957     0.917359     0.952564     0.492573     0.955164     0.457467 
          47     0.138692     7.210213     0.914266     0.950840     0.483202     0.949617     0.412330 
          48     0.141643     7.060000     0.910901     0.947207     0.464474     0.943628     0.367316 
          49     0.144594     6.915918     0.910459     0.947433     0.465600     0.941756     0.349526 
          50     0.147545     6.777600     0.910348     0.945878     0.457947     0.940645     0.337945 
          51     0.150496     6.644706     0.903766     0.938273     0.423563     0.934031     0.314492 
          52     0.153447     6.516923     0.891288     0.934870     0.409637     0.923752     0.298624 
          53     0.156398     6.393962     0.887993     0.926561     0.378842     0.917816     0.266267 
          54     0.159348     6.275556     0.887608     0.925603     0.375555     0.913153     0.227288 
          55     0.162299     6.161455     0.884949     0.922930     0.366643     0.908334     0.203251 
          56     0.165250     6.051429     0.888125     0.917993     0.351123     0.909492     0.190990 
          57     0.168201     5.945263     0.891775     0.914250     0.340106     0.910231     0.170531 
          58     0.171152     5.842759     0.890053     0.919470     0.355644     0.905285     0.138536 
          59     0.174103     5.743729     0.884483     0.915702     0.344306     0.898483     0.121191 
          60     0.177054     5.648000     0.888248     0.917733     0.350338     0.899981     0.104988 
          61     0.180005     5.555410     0.884072     0.913816     0.338866     0.896498     0.107189 
          62     0.182956     5.465807     0.883589     0.918084     0.351399     0.896667     0.112346 
          63     0.185907     5.379048     0.894071     0.923608     0.368865     0.905230     0.105341 
          64     0.188857     5.295000     0.905614     0.932119     0.398963     0.914550     0.094675 
          65     0.191808     5.213539     0.910192     0.933181     0.403023     0.917361     0.079826 
          66     0.194759     5.134546     0.915130     0.935650     0.412754     0.920778     0.066548 
          67     0.197710     5.057911     0.920482     0.946179     0.459408     0.924892     0.055459 
          68     0.200661     4.983529     0.921201     0.945090     0.454153     0.925030     0.048594 
          69     0.203612     4.911304     0.922085     0.945335     0.455328     0.925576     0.044803 
          70     0.206563     4.841143     0.924214     0.945686     0.457014     0.927180     0.039136 
          71     0.209514     4.772958     0.923343     0.945016     0.453800     0.925933     0.033782 
          72     0.212465     4.706667     0.916235     0.943041     0.444550     0.918889     0.031683 
          73     0.215415     4.642192     0.911053     0.940402     0.432708     0.914063     0.033843 
          74     0.218366     4.579460     0.907210     0.934051     0.406408     0.910866     0.039404 
          75     0.221317     4.518400     0.904477     0.936278     0.415297     0.907746     0.034219 
          76     0.224268     4.458947     0.901017     0.928203     0.384595     0.903943     0.029562 
          77     0.227219     4.401039     0.892574     0.914804     0.341697     0.895380     0.026122 
          78     0.230170     4.344615     0.878598     0.911044     0.331138     0.880784     0.018005 
          79     0.233121     4.289620     0.862515     0.894400     0.290492     0.864413     0.013804 
          80     0.236072     4.236000     0.845628     0.887128     0.275328     0.848494     0.018567 
          81     0.239023     4.183704     0.835767     0.877123     0.256540     0.837433     0.010145 
          82     0.241974     4.132683     0.831013     0.873061     0.249516     0.830415     -0.00354 
          83     0.244924     4.082892     0.816283     0.863196     0.233724     0.815579     -0.00383 
          84     0.247875     4.034286     0.789144     0.849725     0.214663     0.788112     -0.00489 
          85     0.250826     3.986824     0.764003     0.829885     0.190822     0.764590     0.002490 
          86     0.253777     3.940465     0.748419     0.819644     0.180117     0.751101     0.010659 
          87     0.256728     3.895172     0.734409     0.794407     0.157387     0.736281     0.007048 
          88     0.259679     3.850909     0.714547     0.798871     0.161077     0.714384 -5.70975e-04 
          89     0.262630     3.807641     0.678784     0.785363     0.150294     0.681228     0.007610 
          90     0.265581     3.765333     0.641478     0.759633     0.132524     0.648790     0.020394 
          91     0.268532     3.723956     0.617288     0.759763     0.132606     0.621905     0.012063 
          92     0.271483     3.683478     0.605104     0.735296     0.118383     0.602489     -0.00662 
          93     0.274433     3.643871     0.576056     0.680355     0.093292     0.570435     -0.01326 
          94     0.277384     3.605106     0.540565     0.726911     0.114003     0.537744     -0.00614 
          95     0.280335     3.567158     0.502316     0.710309     0.105968     0.501166     -0.00231 
          96     0.283286     3.530000     0.464547     0.672142     0.090167     0.460875     -0.00686 
          97     0.286237     3.493608     0.444400     0.674430     0.091024     0.443068     -0.00240 
          98     0.289188     3.457959     0.423927     0.655046     0.084077     0.425592     0.002889 
          99     0.292139     3.423030     0.382626     0.617408     0.072364     0.383130 8.165550e-04 
         100     0.295090     3.388800     0.355033     0.664944     0.087537     0.351747     -0.00509 
         101     0.298041     3.355248     0.336024     0.617582     0.072414     0.340510     0.006757 
         102     0.300991     3.322353     0.321912     0.602450     0.068255     0.326816     0.007233 
         103     0.303942     3.290097     0.281822     0.627554     0.075316     0.281512 -4.31839e-04 
         104     0.306893     3.258462     0.248983     0.612908     0.071098     0.246633     -0.00313 
         105     0.309844     3.227429     0.232150     0.601366     0.067968     0.224504     -0.00996 
         106     0.312795     3.196981     0.223134     0.574830     0.061347     0.217969     -0.00665 
         107     0.315746     3.167103     0.202232     0.590639     0.065199     0.202047 -2.30850e-04 
         108     0.318697     3.137778     0.180186     0.570420     0.060317     0.184954     0.005816 
         109     0.321648     3.108991     0.179612     0.590137     0.065073     0.182949     0.004068 
         110     0.324599     3.080727     0.163517     0.492862     0.044871     0.167952     0.005302 
         111     0.327550     3.052973     0.138069     0.498383     0.045828     0.142793     0.005481 
         112     0.330500     3.025714     0.149401     0.546069     0.054956     0.153926     0.005319 
         113     0.333451     2.998938     0.155941     0.560785     0.058132     0.158739     0.003315 
         114     0.336402     2.972632     0.142464     0.577091     0.061882     0.141549     -0.00107 
         115     0.339353     2.946783     0.128623     0.591230     0.065348     0.128227 -4.54803e-04 
         116     0.342304     2.921379     0.103931     0.502452     0.046544     0.101628     -0.00257 
         117     0.345255     2.896410     0.091376     0.515173     0.048856     0.086955     -0.00487 
         118     0.348206     2.871864     0.107330     0.557829     0.057479     0.101772     -0.00623 
         119     0.351157     2.847731     0.120292     0.525592     0.050833     0.120098 -2.20959e-04 
         120     0.354108     2.824000     0.126400     0.555962     0.057071     0.124057     -0.00268 
         121     0.357059     2.800661     0.107469     0.564978     0.059072     0.105434     -0.00228 
         122     0.360009     2.777705     0.098987     0.526725     0.051053     0.097338     -0.00183 
         123     0.362960     2.755122     0.092418     0.486406     0.043777     0.087087     -0.00587 
         124     0.365911     2.732903     0.089669     0.541460     0.053999     0.080615     -0.00995 
         125     0.368862     2.711040     0.072757     0.530250     0.051743     0.064819     -0.00856 
         126     0.371813     2.689524     0.075193     0.520308     0.049821     0.072241     -0.00319 
         127     0.374764     2.668346     0.069965     0.508180     0.047572     0.071414     0.001558 
         128     0.377715     2.647500     0.073108     0.522774     0.050291     0.072168     -0.00101 
         129     0.380666     2.626977     0.078373     0.489654     0.044324     0.074832     -0.00384 
         130     0.383617     2.606769     0.070352     0.571541     0.060577     0.064905     -0.00586 
         131     0.386568     2.586870     0.065249     0.557943     0.057504     0.058304     -0.00743 
         132     0.389518     2.567273     0.080939     0.527517     0.051207     0.074250     -0.00728 
         133     0.392469     2.547970     0.087910     0.532700     0.052227     0.080720     -0.00788 
         134     0.395420     2.528955     0.074390     0.493779     0.045029     0.071032     -0.00363 
         135     0.398371     2.510222     0.073909     0.507070     0.047371     0.072404     -0.00162 
         136     0.401322     2.491765     0.076035     0.507351     0.047422     0.074503     -0.00166 
         137     0.404273     2.473577     0.074486     0.557795     0.057472     0.074341 -1.57175e-04 
         138     0.407224     2.455652     0.068983     0.496773     0.045547     0.068736 -2.65018e-04 
         139     0.410175     2.437986     0.067155     0.549311     0.055640     0.067860 7.559376e-04 
         140     0.413126     2.420571     0.062328     0.520424     0.049843     0.059436     -0.00308 
         141     0.416076     2.403404     0.062202     0.474191     0.041774     0.060079     -0.00226 
         142     0.419027     2.386479     0.067805     0.485574     0.043638     0.074739     0.007438 
         143     0.421978     2.369790     0.069821     0.505815     0.047145     0.079947     0.010886 
         144     0.424929     2.353333     0.082404     0.496565     0.045511     0.088247     0.006367 
         145     0.427880     2.337103     0.085482     0.519514     0.049671     0.088444     0.003239 
         146     0.430831     2.321096     0.094166     0.496754     0.045543     0.094219 5.859439e-05 
         147     0.433782     2.305306     0.098969     0.522300     0.050200     0.094814     -0.00461 
         148     0.436733     2.289730     0.084614     0.442710     0.036981     0.082780     -0.00200 
         149     0.439684     2.274362     0.069109     0.470002     0.041106     0.065196     -0.00420 
         150     0.442635     2.259200     0.058389     0.517005     0.049198     0.052261     -0.00651 
         151     0.445585     2.244238     0.066420     0.462096     0.039872     0.063027     -0.00363 
         152     0.448536     2.229474     0.078499     0.486743     0.043834     0.074709     -0.00411 
         153     0.451487     2.214902     0.082296     0.464640     0.040265     0.074900     -0.00806 
         154     0.454438     2.200520     0.070911     0.422650     0.034178     0.065165     -0.00618 
         155     0.457389     2.186323     0.055374     0.472261     0.041465     0.050928     -0.00471 
         156     0.460340     2.172308     0.062085     0.483251     0.043251     0.058911     -0.00338 
         157     0.463291     2.158471     0.073502     0.496803     0.045552     0.070122     -0.00365 
         158     0.466242     2.144810     0.072905     0.519807     0.049726     0.070163     -0.00296 
         159     0.469193     2.131321     0.067950     0.503367     0.046707     0.067775 -1.88378e-04 
         160     0.472144     2.118000     0.068071     0.449992     0.038045     0.069556     0.001593 
 

# version 30001

data_guinier

loop_ 
_rlnResolutionSquared #1 
_rlnLogAmplitudesOriginal #2 
_rlnLogAmplitudesWeighted #3 
_rlnLogAmplitudesSharpened #4 
_rlnLogAmplitudesIntercept #5 
    0.000000    -11.39203    -11.39203    -11.39203    -13.65547 
8.707793e-06     -9.08264     -9.08264     -9.08252    -13.65547 
3.483117e-05     -9.20246     -9.20247     -9.20211    -13.65547 
7.837014e-05    -10.33232    -10.33233    -10.33164    -13.65547 
1.393247e-04    -10.23537    -10.23537    -10.23413    -13.65547 
2.176948e-04    -10.43875    -10.43876    -10.43685    -13.65547 
3.134806e-04    -10.87609    -10.87611    -10.87334    -13.65547 
4.266819e-04    -11.19786    -11.19790    -11.19425    -13.65547 
5.572988e-04    -11.40507    -11.40513    -11.40042    -13.65547 
7.053313e-04    -11.51382    -11.51388    -11.50788    -13.65547 
8.707793e-04    -11.85123    -11.85132    -11.84388    -13.65547 
    0.001054    -11.93597    -11.93608    -11.92709    -13.65547 
    0.001254    -11.95763    -11.95772    -11.94712    -13.65547 
    0.001472    -12.15632    -12.15640    -12.14396    -13.65547 
    0.001707    -12.31777    -12.31791    -12.30343    -13.65547 
    0.001959    -12.42462    -12.42494    -12.40843    -13.65547 
    0.002229    -12.53322    -12.53375    -12.51500    -13.65547 
    0.002517    -12.71239    -12.71310    -12.69189    -13.65547 
    0.002821    -12.87479    -12.87560    -12.85172    -13.65547 
    0.003144    -12.86039    -12.86119    -12.83464    -13.65547 
    0.003483    -12.99016    -12.99109    -12.96176    -13.65547 
    0.003840    -13.09711    -13.09812    -13.06573    -13.65547 
    0.004215    -13.09029    -13.09131    -13.05573    -13.65547 
    0.004606    -13.07686    -13.07796    -13.03912    -13.65547 
    0.005016    -13.04919    -13.05026    -13.00801    -13.65547 
    0.005442    -13.01606    -13.01714    -12.97127    -13.65547 
    0.005886    -12.99831    -12.99932    -12.94968    -13.65547 
    0.006348    -12.98760    -12.98862    -12.93509    -13.65547 
    0.006827    -13.01830    -13.01950    -12.96195    -13.65547 
    0.007323    -13.09561    -13.09699    -13.03526    -13.65547 
    0.007837    -13.12711    -13.12842    -13.06239    -13.65547 
    0.008368    -13.16852    -13.16988    -13.09940    -13.65547 
    0.008917    -13.19071    -13.19217    -13.11707    -13.65547 
    0.009483    -13.18194    -13.18340    -13.10354    -13.65547 
    0.010066    -13.16300    -13.16443    -13.07964    -13.65547 
    0.010667    -13.21031    -13.21199    -13.12213    -13.65547 
    0.011285    -13.28135    -13.28348    -13.18847    -13.65547 
    0.011921    -13.34562    -13.34840    -13.24800    -13.65547 
    0.012574    -13.43811    -13.44154    -13.33566    -13.65547 
    0.013245    -13.52047    -13.52445    -13.41297    -13.65547 
    0.013932    -13.56407    -13.57917    -13.46189    -13.65547 
    0.014638    -13.60887    -13.62282    -13.49958    -13.65547 
    0.015361    -13.65985    -13.67283    -13.54353    -13.65547 
    0.016101    -13.74502    -13.75858    -13.62303    -13.65547 
    0.016858    -13.79715    -13.81389    -13.67194    -13.65547 
    0.017633    -13.83213    -13.85186    -13.70339    -13.65547 
    0.018426    -13.90271    -13.92474    -13.76961    -13.65547 
    0.019236    -13.92952    -13.95243    -13.79055    -13.65547 
    0.020063    -13.95888    -13.98276    -13.81390    -13.65547 
    0.020907    -13.94637    -13.97037    -13.79437    -13.65547 
    0.021769    -13.96110    -13.98514    -13.80185    -13.65547 
    0.022649    -14.00358    -14.02952    -13.83882    -13.65547 
    0.023546    -14.01845    -14.04805    -13.84983    -13.65547 
    0.024460    -14.02157    -14.05215    -13.84615    -13.65547 
    0.025392    -14.01886    -14.04955    -13.83570    -13.65547 
    0.026341    -14.01489    -14.04638    -13.82464    -13.65547 
    0.027308    -14.01914    -14.04968    -13.81989    -13.65547 
    0.028292    -14.03213    -14.06158    -13.82344    -13.65547 
    0.029293    -14.02475    -14.05472    -13.80812    -13.65547 
    0.030312    -14.02942    -14.06105    -13.80589    -13.65547 
    0.031348    -14.00378    -14.03428    -13.77041    -13.65547 
    0.032402    -13.98806    -14.01981    -13.74702    -13.65547 
    0.033473    -13.97296    -14.00485    -13.72304    -13.65547 
    0.034561    -13.95294    -13.98171    -13.69083    -13.65547 
    0.035667    -13.92090    -13.94630    -13.64617    -13.65547 
    0.036790    -13.89498    -13.91906    -13.60941    -13.65547 
    0.037931    -13.86712    -13.88979    -13.57042    -13.65547 
    0.039089    -13.81814    -13.83929    -13.51018    -13.65547 
    0.040265    -13.80613    -13.82707    -13.48814    -13.65547 
    0.041458    -13.80436    -13.82505    -13.47604    -13.65547 
    0.042668    -13.79713    -13.81722    -13.45801    -13.65547 
    0.043896    -13.79717    -13.81750    -13.44807    -13.65547 
    0.045141    -13.80941    -13.83176    -13.45186    -13.65547 
    0.046404    -13.80892    -13.83275    -13.44220    -13.65547 
    0.047684    -13.82343    -13.84837    -13.44701    -13.65547 
    0.048981    -13.83415    -13.85988    -13.44764    -13.65547 
    0.050296    -13.87117    -13.89790    -13.47456    -13.65547 
    0.051629    -13.86727    -13.89649    -13.46190    -13.65547 
    0.052978    -13.91125    -13.94465    -13.49879    -13.65547 
    0.054345    -13.94914    -13.98748    -13.53015    -13.65547 
    0.055730    -13.96046    -14.00414    -13.53516    -13.65547 
    0.057132    -13.98041    -14.02727    -13.54644    -13.65547 
    0.058551    -13.98662    -14.03503    -13.54225    -13.65547 
    0.059988    -14.00212    -14.05544    -13.55056    -13.65547 
    0.061442    -14.02139    -14.08409    -13.56700    -13.65547 
    0.062914    -14.03669    -14.10850    -13.57902    -13.65547 
    0.064403    -14.04917    -14.12684    -13.58477    -13.65547 
    0.065909    -14.06620    -14.14931    -13.59459    -13.65547 
    0.067433    -14.04987    -14.14092    -13.57341    -13.65547 
    0.068974    -14.06450    -14.17068    -13.59024    -13.65547 
    0.070533    -14.06392    -14.18714    -13.59351    -13.65547 
    0.072109    -14.06115    -14.19616    -13.58921    -13.65547 
    0.073703    -14.07258    -14.21378    -13.59344    -13.65547 
    0.075314    -14.09037    -14.24704    -13.61313    -13.65547 
    0.076942    -14.08188    -14.25895    -13.61140    -13.65547 
    0.078588    -14.09371    -14.29491    -13.63359    -13.65547 
    0.080251    -14.10310    -14.33064    -13.65540    -13.65547 
    0.081932    -14.10955    -14.35234    -13.66294    -13.65547 
    0.083630    -14.11387    -14.37311    -13.66926    -13.65547 
    0.085345    -14.13013    -14.42590    -13.70761    -13.65547 
    0.087078    -14.12789    -14.45100    -13.71815    -13.65547 
    0.088828    -14.13637    -14.47993    -13.73239    -13.65547 
    0.090596    -14.14142    -14.50113    -13.73868    -13.65547 
    0.092381    -14.14085    -14.55166    -13.77414    -13.65547 
    0.094183    -14.13510    -14.59487    -13.80226    -13.65547 
    0.096003    -14.13976    -14.62775    -13.81983    -13.65547 
    0.097841    -14.15132    -14.65545    -13.83198    -13.65547 
    0.099696    -14.14500    -14.68968    -13.85067    -13.65547 
    0.101568    -14.15329    -14.74643    -13.89173    -13.65547 
    0.103457    -14.14812    -14.74262    -13.87195    -13.65547 
    0.105364    -14.15230    -14.78686    -13.90009    -13.65547 
    0.107289    -14.15009    -14.85818    -13.95526    -13.65547 
    0.109231    -14.14772    -14.82133    -13.90217    -13.65547 
    0.111190    -14.14171    -14.79673    -13.86108    -13.65547 
    0.113166    -14.14101    -14.83536    -13.88299    -13.65547 
    0.115161    -14.14127    -14.88063    -13.91150    -13.65547 
    0.117172    -14.15068    -14.98556    -13.99953    -13.65547 
    0.119201    -14.14139    -15.03492    -14.03175    -13.65547 
    0.121247    -14.13906    -14.95938    -13.93897    -13.65547 
    0.123311    -14.14131    -14.91044    -13.87278    -13.65547 
    0.125392    -14.14157    -14.88866    -13.83348    -13.65547 
    0.127491    -14.14390    -14.96364    -13.89076    -13.65547 
    0.129607    -14.14501    -15.00201    -13.91128    -13.65547 
    0.131740    -14.14014    -15.02848    -13.91982    -13.65547 
    0.133891    -14.13668    -15.03886    -13.91214    -13.65547 
    0.136059    -14.14207    -15.14093    -13.99591    -13.65547 
    0.138245    -14.13972    -15.12325    -13.95982    -13.65547 
    0.140448    -14.13682    -15.15394    -13.97205    -13.65547 
    0.142668    -14.14068    -15.13730    -13.93677    -13.65547 
    0.144906    -14.14368    -15.10797    -13.88853    -13.65547 
    0.147162    -14.12531    -15.13986    -13.90140    -13.65547 
    0.149434    -14.13225    -15.18205    -13.92452    -13.65547 
    0.151725    -14.12939    -15.07876    -13.80194    -13.65547 
    0.154032    -14.13229    -15.04357    -13.74732    -13.65547 
    0.156357    -14.13440    -15.12292    -13.80711    -13.65547 
    0.158700    -14.13327    -15.12481    -13.78933    -13.65547 
    0.161059    -14.13303    -15.11137    -13.75606    -13.65547 
    0.163437    -14.12450    -15.11242    -13.73696    -13.65547 
    0.165831    -14.13431    -15.15804    -13.76241    -13.65547 
    0.168243    -14.12299    -15.15929    -13.74346    -13.65547 
    0.170673    -14.12916    -15.20049    -13.76428    -13.65547 
    0.173120    -14.12903    -15.20132    -13.74449    -13.65547 
    0.175584    -14.13048    -15.16227    -13.68467    -13.65547 
    0.178066    -14.12824    -15.14632    -13.64789    -13.65547 
    0.180565    -14.12183    -15.06291    -13.54354    -13.65547 
    0.183081    -14.12193    -15.04610    -13.50554    -13.65547 
    0.185615    -14.12706    -15.00684    -13.44488    -13.65547 
    0.188167    -14.12282    -14.97991    -13.39647    -13.65547 
    0.190736    -14.12530    -15.05416    -13.44904    -13.65547 
    0.193322    -14.12620    -15.14908    -13.52218    -13.65547 
    0.195925    -14.11864    -15.22075    -13.57190    -13.65547 
    0.198546    -14.12635    -15.16781    -13.49693    -13.65547 
    0.201185    -14.12303    -15.08657    -13.39358    -13.65547 
    0.203841    -14.12592    -15.06760    -13.35226    -13.65547 
    0.206514    -14.12895    -15.13979    -13.40190    -13.65547 
    0.209205    -14.12425    -15.25144    -13.49093    -13.65547 
    0.211913    -14.12507    -15.19823    -13.41497    -13.65547 
    0.214638    -14.11969    -15.11380    -13.30758    -13.65547 
    0.217381    -14.09908    -15.09699    -13.26758    -13.65547 
    0.220142    -14.00398    -15.03477    -13.18161    -13.65547 
    0.222920    -13.81692    -14.84688    -13.58176    -13.65547 
 
