# RELION postprocess; version 4.0-beta-2
# --mask mask.mrc --i output/_iter2_half1.mrc --i2 output/_iter2_half2.mrc --o output/_postprocess_iter2/iter2 --angpix 1.059 --auto_bfac --autob_lowres 10 

# version 30001

data_general

_rlnFinalResolution                               2.972632
_rlnBfactorUsedForSharpening                     -38.89246
_rlnUnfilteredMapHalf1                        output/_iter2_half1.mrc
_rlnUnfilteredMapHalf2                        output/_iter2_half2.mrc
_rlnPostprocessedMap                          output/_postprocess_iter2/iter2.mrc
_rlnParticleBoxFractionSolventMask               20.686732
_rlnMaskName                                  mask.mrc
_rlnRandomiseFrom                                 7.880930
_rlnPostprocessedMapMasked                    output/_postprocess_iter2/iter2_masked.mrc
_rlnFittedSlopeGuinierPlot                        -9.72312
_rlnFittedInterceptGuinierPlot                   -13.87409
_rlnCorrelationFitGuinierPlot                     0.867908
 

# version 30001

data_fsc

loop_ 
_rlnSpectralIndex #1 
_rlnResolution #2 
_rlnAngstromResolution #3 
_rlnFourierShellCorrelationCorrected #4 
_rlnFourierShellCorrelationParticleMaskFraction #5 
_rlnFourierShellCorrelationUnmaskedMaps #6 
_rlnFourierShellCorrelationMaskedMaps #7 
_rlnCorrectedFourierShellCorrelationPhaseRandomizedMaskedMaps #8 
           0     0.001001   999.000000     1.000000     1.000000     1.000000     1.000000     1.000000 
           1     0.002951   338.880005     1.000000     0.999987     0.999738     1.000000     1.000000 
           2     0.005902   169.440002     0.999995     0.999992     0.999833     0.999995     0.999995 
           3     0.008853   112.960002     0.999954     0.999962     0.999218     0.999954     0.999954 
           4     0.011804    84.720001     0.999957     0.999973     0.999446     0.999957     0.999962 
           5     0.014754    67.776001     0.999978     0.999975     0.999486     0.999978     0.999979 
           6     0.017705    56.480001     0.999961     0.999937     0.998700     0.999961     0.999961 
           7     0.020656    48.411429     0.999896     0.999920     0.998341     0.999896     0.999896 
           8     0.023607    42.360001     0.999829     0.999919     0.998325     0.999829     0.999831 
           9     0.026558    37.653334     0.999860     0.999891     0.997754     0.999860     0.999860 
          10     0.029509    33.888000     0.999849     0.999799     0.995860     0.999849     0.999847 
          11     0.032460    30.807273     0.999833     0.999878     0.997480     0.999833     0.999820 
          12     0.035411    28.240000     0.999838     0.999861     0.997135     0.999838     0.999827 
          13     0.038362    26.067693     0.999783     0.999800     0.995872     0.999783     0.999777 
          14     0.041313    24.205715     0.999610     0.999674     0.993301     0.999610     0.999609 
          15     0.044263    22.592000     0.999342     0.999507     0.989904     0.999342     0.999340 
          16     0.047214    21.180000     0.999036     0.999339     0.986497     0.999036     0.999045 
          17     0.050165    19.934118     0.998823     0.998908     0.977885     0.998823     0.998824 
          18     0.053116    18.826667     0.998658     0.998587     0.971568     0.998658     0.998606 
          19     0.056067    17.835790     0.998538     0.998650     0.972800     0.998538     0.998522 
          20     0.059018    16.944000     0.998186     0.998196     0.963966     0.998186     0.998161 
          21     0.061969    16.137143     0.997908     0.998028     0.960740     0.997908     0.997873 
          22     0.064920    15.403637     0.997730     0.997880     0.957894     0.997730     0.997739 
          23     0.067871    14.733913     0.997614     0.997696     0.954407     0.997614     0.997679 
          24     0.070822    14.120000     0.997824     0.997802     0.956415     0.997824     0.997888 
          25     0.073772    13.555200     0.997918     0.997928     0.958821     0.997918     0.997993 
          26     0.076723    13.033846     0.997958     0.998107     0.962241     0.997958     0.998022 
          27     0.079674    12.551111     0.997867     0.998245     0.964899     0.997867     0.997929 
          28     0.082625    12.102857     0.997605     0.998051     0.961170     0.997605     0.997658 
          29     0.085576    11.685517     0.997181     0.997773     0.955873     0.997181     0.997184 
          30     0.088527    11.296000     0.997063     0.997559     0.951810     0.997063     0.997064 
          31     0.091478    10.931613     0.996812     0.997327     0.947463     0.996812     0.996826 
          32     0.094429    10.590000     0.996471     0.997015     0.941684     0.996471     0.996521 
          33     0.097380    10.269091     0.996419     0.996807     0.937857     0.996419     0.996480 
          34     0.100330     9.967059     0.996354     0.996906     0.939661     0.996354     0.996451 
          35     0.103281     9.682286     0.996131     0.996366     0.929846     0.996131     0.996179 
          36     0.106232     9.413333     0.995493     0.995848     0.920599     0.995493     0.995558 
          37     0.109183     9.158919     0.993983     0.994934     0.904710     0.993983     0.994067 
          38     0.112134     8.917895     0.991902     0.994030     0.889482     0.991902     0.991835 
          39     0.115085     8.689231     0.990375     0.992484     0.864559     0.990375     0.989876 
          40     0.118036     8.472000     0.989485     0.991198     0.844813     0.989485     0.988333 
          41     0.120987     8.265366     0.988306     0.990263     0.830970     0.988306     0.985536 
          42     0.123938     8.068572     0.987087     0.988398     0.804615     0.987087     0.977696 
          43     0.126889     7.880930     0.984504     0.985790     0.770305     0.984504     0.947648 
          44     0.129839     7.701818     0.981118     0.982411     0.729733     0.981118     0.853352 
          45     0.132790     7.530667     0.922844     0.980908     0.712947     0.977618     0.709912 
          46     0.135741     7.366957     0.925686     0.975715     0.660117     0.972697     0.632601 
          47     0.138692     7.210213     0.930458     0.973078     0.635997     0.969757     0.565111 
          48     0.141643     7.060000     0.933009     0.970656     0.615241     0.966540     0.500530 
          49     0.144594     6.915918     0.933569     0.969769     0.607950     0.964227     0.461505 
          50     0.147545     6.777600     0.930414     0.969853     0.608636     0.960589     0.433639 
          51     0.150496     6.644706     0.920017     0.963563     0.561086     0.953339     0.416615 
          52     0.153447     6.516923     0.907463     0.957927     0.523947     0.946799     0.425088 
          53     0.156398     6.393962     0.907340     0.957485     0.521228     0.945228     0.408898 
          54     0.159348     6.275556     0.907983     0.953469     0.497625     0.942048     0.370201 
          55     0.162299     6.161455     0.908207     0.949469     0.475972     0.938749     0.332733 
          56     0.165250     6.051429     0.916879     0.951632     0.487465     0.941054     0.290850 
          57     0.168201     5.945263     0.920390     0.952983     0.494899     0.940891     0.257525 
          58     0.171152     5.842759     0.912529     0.950353     0.480609     0.934845     0.255122 
          59     0.174103     5.743729     0.906385     0.946876     0.462832     0.930022     0.252488 
          60     0.177054     5.648000     0.909289     0.949763     0.477506     0.929891     0.227116 
          61     0.180005     5.555410     0.916607     0.948556     0.471269     0.933029     0.196927 
          62     0.182956     5.465807     0.922629     0.948284     0.469884     0.935788     0.170085 
          63     0.185907     5.379048     0.925705     0.952868     0.494258     0.937093     0.153276 
          64     0.188857     5.295000     0.932686     0.954863     0.505594     0.941636     0.132958 
          65     0.191808     5.213539     0.934587     0.958326     0.526431     0.941814     0.110484 
          66     0.194759     5.134546     0.937665     0.960458     0.540055     0.943835     0.098976 
          67     0.197710     5.057911     0.941154     0.961846     0.549276     0.946434     0.089725 
          68     0.200661     4.983529     0.944836     0.961984     0.550208     0.948568     0.067649 
          69     0.203612     4.911304     0.945982     0.961221     0.545083     0.949507     0.065248 
          70     0.206563     4.841143     0.945198     0.960939     0.543213     0.949231     0.073588 
          71     0.209514     4.772958     0.942436     0.961712     0.548371     0.946440     0.069545 
          72     0.212465     4.706667     0.936204     0.957076     0.518733     0.939909     0.058061 
          73     0.215415     4.642192     0.930808     0.955071     0.506804     0.933956     0.045502 
          74     0.218366     4.579460     0.927563     0.951928     0.489075     0.931169     0.049781 
          75     0.221317     4.518400     0.925628     0.952396     0.491645     0.930363     0.063672 
          76     0.224268     4.458947     0.923159     0.946136     0.459197     0.927518     0.056730 
          77     0.227219     4.401039     0.915553     0.937140     0.418831     0.919706     0.049173 
          78     0.230170     4.344615     0.902383     0.932921     0.402023     0.906777     0.045009 
          79     0.233121     4.289620     0.887909     0.923810     0.369533     0.892696     0.042704 
          80     0.236072     4.236000     0.874650     0.919372     0.355339     0.879807     0.041144 
          81     0.239023     4.183704     0.863064     0.904309     0.313578     0.868181     0.037364 
          82     0.241974     4.132683     0.853479     0.894173     0.289997     0.858556     0.034652 
          83     0.244924     4.082892     0.840286     0.889529     0.280182     0.846185     0.036937 
          84     0.247875     4.034286     0.826348     0.873379     0.250054     0.832383     0.034749 
          85     0.250826     3.986824     0.804366     0.856882     0.224460     0.812328     0.040699 
          86     0.253777     3.940465     0.788708     0.852695     0.218642     0.794246     0.026209 
          87     0.256728     3.895172     0.768747     0.833341     0.194661     0.772707     0.017124 
          88     0.259679     3.850909     0.751262     0.816072     0.176603     0.753115     0.007450 
          89     0.262630     3.807641     0.731402     0.811602     0.172354     0.730885     -0.00193 
          90     0.265581     3.765333     0.709335     0.787657     0.152047     0.708942     -0.00135 
          91     0.268532     3.723956     0.679266     0.784976     0.150002     0.678964 -9.41267e-04 
          92     0.271483     3.683478     0.652659     0.778374     0.145136     0.656235     0.010295 
          93     0.274433     3.643871     0.614499     0.737856     0.119767     0.623209     0.022594 
          94     0.277384     3.605106     0.580624     0.735185     0.118324     0.591512     0.025962 
          95     0.280335     3.567158     0.541820     0.749171     0.126165     0.551487     0.021098 
          96     0.283286     3.530000     0.510015     0.711264     0.106409     0.519219     0.018784 
          97     0.286237     3.493608     0.497188     0.719163     0.110153     0.503455     0.012463 
          98     0.289188     3.457959     0.475570     0.679902     0.093116     0.482318     0.012867 
          99     0.292139     3.423030     0.442848     0.674038     0.090876     0.446445     0.006456 
         100     0.295090     3.388800     0.419486     0.667300     0.088387     0.417072     -0.00416 
         101     0.298041     3.355248     0.400956     0.650740     0.082625     0.398476     -0.00414 
         102     0.300991     3.322353     0.373566     0.646388     0.081189     0.377221     0.005833 
         103     0.303942     3.290097     0.323882     0.648915     0.082019     0.335738     0.017536 
         104     0.306893     3.258462     0.292480     0.632576     0.076831     0.301150     0.012254 
         105     0.309844     3.227429     0.268074     0.648038     0.081730     0.271458     0.004622 
         106     0.312795     3.196981     0.252067     0.554967     0.056854     0.250779     -0.00172 
         107     0.315746     3.167103     0.225538     0.636729     0.078111     0.224182     -0.00175 
         108     0.318697     3.137778     0.216609     0.607574     0.069631     0.215347     -0.00161 
         109     0.321648     3.108991     0.220667     0.625570     0.074728     0.222126     0.001872 
         110     0.324599     3.080727     0.201802     0.554758     0.056809     0.204785     0.003738 
         111     0.327550     3.052973     0.186913     0.552476     0.056316     0.191235     0.005316 
         112     0.330500     3.025714     0.178445     0.575377     0.061476     0.190106     0.014194 
         113     0.333451     2.998938     0.169979     0.603144     0.068440     0.187185     0.020730 
         114     0.336402     2.972632     0.155053     0.580938     0.062804     0.172321     0.020436 
         115     0.339353     2.946783     0.136474     0.615398     0.071795     0.153271     0.019451 
         116     0.342304     2.921379     0.126495     0.548920     0.055557     0.139596     0.014998 
         117     0.345255     2.896410     0.103400     0.504495     0.046908     0.120920     0.019541 
         118     0.348206     2.871864     0.091871     0.571174     0.060492     0.110272     0.020262 
         119     0.351157     2.847731     0.088853     0.534841     0.052655     0.102915     0.015433 
         120     0.354108     2.824000     0.102758     0.568826     0.059950     0.111487     0.009729 
         121     0.357059     2.800661     0.099589     0.569811     0.060176     0.100443 9.487885e-04 
         122     0.360009     2.777705     0.102372     0.510764     0.048043     0.094573     -0.00869 
         123     0.362960     2.755122     0.109493     0.561045     0.058190     0.097667     -0.01328 
         124     0.365911     2.732903     0.106584     0.527531     0.051210     0.096770     -0.01098 
         125     0.368862     2.711040     0.083695     0.527870     0.051276     0.083151 -5.92835e-04 
         126     0.371813     2.689524     0.078555     0.495454     0.045318     0.085997     0.008076 
         127     0.374764     2.668346     0.089722     0.551303     0.056064     0.098059     0.009158 
         128     0.377715     2.647500     0.092425     0.587279     0.064359     0.097261     0.005328 
         129     0.380666     2.626977     0.095305     0.558761     0.057684     0.092834     -0.00273 
         130     0.383617     2.606769     0.099145     0.576503     0.061742     0.088370     -0.01196 
         131     0.386568     2.586870     0.102232     0.570598     0.060358     0.092625     -0.01070 
         132     0.389518     2.567273     0.090180     0.504888     0.046979     0.088869     -0.00144 
         133     0.392469     2.547970     0.071516     0.577244     0.061918     0.081429     0.010676 
         134     0.395420     2.528955     0.064391     0.568599     0.059898     0.080509     0.017227 
         135     0.398371     2.510222     0.079207     0.559545     0.057857     0.089147     0.010795 
         136     0.401322     2.491765     0.077543     0.545064     0.054746     0.084203     0.007219 
         137     0.404273     2.473577     0.071586     0.559592     0.057868     0.078065     0.006978 
         138     0.407224     2.455652     0.068895     0.560665     0.058106     0.073847     0.005318 
         139     0.410175     2.437986     0.072840     0.555721     0.057018     0.072880 4.324683e-05 
         140     0.413126     2.420571     0.060618     0.485056     0.043551     0.062159     0.001640 
         141     0.416076     2.403404     0.064975     0.511928     0.048256     0.067597     0.002804 
         142     0.419027     2.386479     0.080103     0.493861     0.045043     0.082125     0.002198 
         143     0.421978     2.369790     0.094783     0.505214     0.047037     0.089709     -0.00560 
         144     0.424929     2.353333     0.094903     0.487478     0.043957     0.078014     -0.01866 
         145     0.427880     2.337103     0.084445     0.546027     0.054948     0.068316     -0.01762 
         146     0.430831     2.321096     0.076554     0.517085     0.049213     0.076761 2.233769e-04 
         147     0.433782     2.305306     0.074141     0.538032     0.053299     0.083182     0.009765 
         148     0.436733     2.289730     0.069988     0.490310     0.044436     0.076279     0.006765 
         149     0.439684     2.274362     0.068164     0.474915     0.041890     0.066472     -0.00182 
         150     0.442635     2.259200     0.066719     0.494088     0.045082     0.064351     -0.00254 
         151     0.445585     2.244238     0.072259     0.501242     0.046330     0.072110 -1.61147e-04 
         152     0.448536     2.229474     0.063132     0.507082     0.047373     0.065221     0.002230 
         153     0.451487     2.214902     0.060762     0.484192     0.043408     0.063247     0.002645 
         154     0.454438     2.200520     0.064724     0.513068     0.048466     0.067101     0.002542 
         155     0.457389     2.186323     0.056235     0.475063     0.041914     0.058653     0.002563 
         156     0.460340     2.172308     0.044484     0.520696     0.049895     0.049004     0.004730 
         157     0.463291     2.158471     0.063186     0.480758     0.042840     0.067388     0.004485 
         158     0.466242     2.144810     0.081932     0.501139     0.046312     0.081465 -5.09566e-04 
         159     0.469193     2.131321     0.083308     0.496847     0.045560     0.079574     -0.00407 
         160     0.472144     2.118000     0.077125     0.466086     0.040490     0.076434 -7.48820e-04 
 

# version 30001

data_guinier

loop_ 
_rlnResolutionSquared #1 
_rlnLogAmplitudesOriginal #2 
_rlnLogAmplitudesWeighted #3 
_rlnLogAmplitudesSharpened #4 
_rlnLogAmplitudesIntercept #5 
    0.000000    -11.32697    -11.32697    -11.32697    -13.87409 
8.707793e-06     -9.08359     -9.08359     -9.08345    -13.87409 
3.483117e-05     -9.20303     -9.20303     -9.20262    -13.87409 
7.837014e-05    -10.33401    -10.33402    -10.33322    -13.87409 
1.393247e-04    -10.25066    -10.25067    -10.24924    -13.87409 
2.176948e-04    -10.45636    -10.45636    -10.45417    -13.87409 
3.134806e-04    -10.88184    -10.88184    -10.87865    -13.87409 
4.266819e-04    -11.20876    -11.20879    -11.20458    -13.87409 
5.572988e-04    -11.42611    -11.42615    -11.42072    -13.87409 
7.053313e-04    -11.54024    -11.54027    -11.53334    -13.87409 
8.707793e-04    -11.88003    -11.88007    -11.87147    -13.87409 
    0.001054    -11.94723    -11.94728    -11.93689    -13.87409 
    0.001254    -11.97576    -11.97580    -11.96355    -13.87409 
    0.001472    -12.18896    -12.18901    -12.17464    -13.87409 
    0.001707    -12.34625    -12.34635    -12.32961    -13.87409 
    0.001959    -12.45082    -12.45098    -12.43190    -13.87409 
    0.002229    -12.57316    -12.57340    -12.55174    -13.87409 
    0.002517    -12.76030    -12.76060    -12.73609    -13.87409 
    0.002821    -12.91088    -12.91122    -12.88363    -13.87409 
    0.003144    -12.90035    -12.90071    -12.87003    -13.87409 
    0.003483    -13.02405    -13.02450    -12.99060    -13.87409 
    0.003840    -13.13887    -13.13939    -13.10197    -13.87409 
    0.004215    -13.12828    -13.12885    -13.08773    -13.87409 
    0.004606    -13.10901    -13.10961    -13.06473    -13.87409 
    0.005016    -13.07687    -13.07742    -13.02859    -13.87409 
    0.005442    -13.04306    -13.04358    -12.99059    -13.87409 
    0.005886    -13.02678    -13.02730    -12.96993    -13.87409 
    0.006348    -13.02421    -13.02474    -12.96289    -13.87409 
    0.006827    -13.05602    -13.05662    -12.99012    -13.87409 
    0.007323    -13.13009    -13.13080    -13.05946    -13.87409 
    0.007837    -13.16479    -13.16553    -13.08922    -13.87409 
    0.008368    -13.20734    -13.20814    -13.12670    -13.87409 
    0.008917    -13.23993    -13.24082    -13.15405    -13.87409 
    0.009483    -13.23965    -13.24055    -13.14827    -13.87409 
    0.010066    -13.22284    -13.22376    -13.12576    -13.87409 
    0.010667    -13.27844    -13.27941    -13.17558    -13.87409 
    0.011285    -13.35858    -13.35972    -13.24993    -13.87409 
    0.011921    -13.43914    -13.44066    -13.32466    -13.87409 
    0.012574    -13.54555    -13.54759    -13.42524    -13.87409 
    0.013245    -13.62612    -13.62855    -13.49973    -13.87409 
    0.013932    -13.66986    -13.67251    -13.53699    -13.87409 
    0.014638    -13.72997    -13.73292    -13.59052    -13.87409 
    0.015361    -13.79856    -13.80182    -13.65241    -13.87409 
    0.016101    -13.89824    -13.90216    -13.74553    -13.87409 
    0.016858    -13.97075    -13.97554    -13.81155    -13.87409 
    0.017633    -14.00920    -14.02968    -13.85812    -13.87409 
    0.018426    -14.09969    -14.11937    -13.94013    -13.87409 
    0.019236    -14.13588    -14.15422    -13.96716    -13.87409 
    0.020063    -14.16929    -14.18693    -13.99183    -13.87409 
    0.020907    -14.17481    -14.19229    -13.98893    -13.87409 
    0.021769    -14.19321    -14.21157    -13.99977    -13.87409 
    0.022649    -14.23924    -14.26052    -14.04019    -13.87409 
    0.023546    -14.26860    -14.29347    -14.06441    -13.87409 
    0.024460    -14.27244    -14.29734    -14.05932    -13.87409 
    0.025392    -14.27802    -14.30273    -14.05567    -13.87409 
    0.026341    -14.29374    -14.31839    -14.06216    -13.87409 
    0.027308    -14.28881    -14.31097    -14.04543    -13.87409 
    0.028292    -14.30029    -14.32146    -14.04628    -13.87409 
    0.029293    -14.31418    -14.33759    -14.05265    -13.87409 
    0.030312    -14.30837    -14.33355    -14.03872    -13.87409 
    0.031348    -14.28424    -14.30857    -14.00362    -13.87409 
    0.032402    -14.27484    -14.29709    -13.98187    -13.87409 
    0.033473    -14.25830    -14.27884    -13.95318    -13.87409 
    0.034561    -14.23397    -14.25364    -13.91748    -13.87409 
    0.035667    -14.20301    -14.22074    -13.87393    -13.87409 
    0.036790    -14.15960    -14.17680    -13.81898    -13.87409 
    0.037931    -14.14156    -14.15791    -13.78894    -13.87409 
    0.039089    -14.12874    -14.14413    -13.76388    -13.87409 
    0.040265    -14.11950    -14.13389    -13.74221    -13.87409 
    0.041458    -14.11003    -14.12411    -13.72084    -13.87409 
    0.042668    -14.11371    -14.12800    -13.71291    -13.87409 
    0.043896    -14.10321    -14.11825    -13.69134    -13.87409 
    0.045141    -14.12157    -14.13832    -13.69937    -13.87409 
    0.046404    -14.13321    -14.15146    -13.70016    -13.87409 
    0.047684    -14.14510    -14.16425    -13.70049    -13.87409 
    0.048981    -14.16393    -14.18363    -13.70728    -13.87409 
    0.050296    -14.19725    -14.21764    -13.72848    -13.87409 
    0.051629    -14.21385    -14.23639    -13.73424    -13.87409 
    0.052978    -14.25508    -14.28142    -13.76619    -13.87409 
    0.054345    -14.29358    -14.32419    -13.79573    -13.87409 
    0.055730    -14.31934    -14.35394    -13.81204    -13.87409 
    0.057132    -14.34481    -14.38298    -13.82742    -13.87409 
    0.058551    -14.36510    -14.40627    -13.83683    -13.87409 
    0.059988    -14.37572    -14.42111    -13.83773    -13.87409 
    0.061442    -14.40198    -14.45193    -13.85446    -13.87409 
    0.062914    -14.42930    -14.48668    -13.87488    -13.87409 
    0.064403    -14.44667    -14.50952    -13.88313    -13.87409 
    0.065909    -14.46526    -14.53532    -13.89433    -13.87409 
    0.067433    -14.45433    -14.53093    -13.87519    -13.87409 
    0.068974    -14.46546    -14.54975    -13.87901    -13.87409 
    0.070533    -14.47802    -14.57122    -13.88527    -13.87409 
    0.072109    -14.47687    -14.58285    -13.88150    -13.87409 
    0.073703    -14.47993    -14.59790    -13.88107    -13.87409 
    0.075314    -14.49974    -14.63615    -13.90371    -13.87409 
    0.076942    -14.50579    -14.65995    -13.91169    -13.87409 
    0.078588    -14.50902    -14.68534    -13.92118    -13.87409 
    0.080251    -14.52011    -14.71625    -13.93600    -13.87409 
    0.081932    -14.52911    -14.73373    -13.93708    -13.87409 
    0.083630    -14.54836    -14.76793    -13.95463    -13.87409 
    0.085345    -14.55443    -14.79843    -13.96842    -13.87409 
    0.087078    -14.56300    -14.82593    -13.97913    -13.87409 
    0.088828    -14.56773    -14.84669    -13.98286    -13.87409 
    0.090596    -14.57149    -14.87596    -13.99494    -13.87409 
    0.092381    -14.56487    -14.92227    -14.02383    -13.87409 
    0.094183    -14.56625    -14.96264    -14.04679    -13.87409 
    0.096003    -14.56911    -14.99953    -14.06594    -13.87409 
    0.097841    -14.58786    -15.04272    -14.09120    -13.87409 
    0.099696    -14.57372    -15.07347    -14.10397    -13.87409 
    0.101568    -14.58301    -15.09930    -14.11166    -13.87409 
    0.103457    -14.58030    -15.08898    -14.08291    -13.87409 
    0.105364    -14.58067    -15.12624    -14.10156    -13.87409 
    0.107289    -14.58783    -15.16549    -14.12217    -13.87409 
    0.109231    -14.58754    -15.18480    -14.12267    -13.87409 
    0.111190    -14.57966    -15.19762    -14.11643    -13.87409 
    0.113166    -14.57817    -15.23567    -14.13519    -13.87409 
    0.115161    -14.57223    -15.28543    -14.16557    -13.87409 
    0.117172    -14.58190    -15.32866    -14.18933    -13.87409 
    0.119201    -14.58158    -15.41878    -14.25960    -13.87409 
    0.121247    -14.57378    -15.46484    -14.28570    -13.87409 
    0.123311    -14.58073    -15.48711    -14.28806    -13.87409 
    0.125392    -14.57784    -15.41786    -14.19860    -13.87409 
    0.127491    -14.57359    -15.42784    -14.18811    -13.87409 
    0.129607    -14.58088    -15.42261    -14.16228    -13.87409 
    0.131740    -14.57221    -15.38353    -14.10242    -13.87409 
    0.133891    -14.57492    -15.39840    -14.09644    -13.87409 
    0.136059    -14.57369    -15.50760    -14.18449    -13.87409 
    0.138245    -14.57536    -15.53858    -14.19419    -13.87409 
    0.140448    -14.57350    -15.47540    -14.10972    -13.87409 
    0.142668    -14.56759    -15.45589    -14.06862    -13.87409 
    0.144906    -14.56811    -15.44239    -14.03330    -13.87409 
    0.147162    -14.56427    -15.42055    -13.98951    -13.87409 
    0.149434    -14.56321    -15.40556    -13.95248    -13.87409 
    0.151725    -14.56931    -15.46888    -13.99352    -13.87409 
    0.154032    -14.56709    -15.57397    -14.07612    -13.87409 
    0.156357    -14.56348    -15.61950    -14.09903    -13.87409 
    0.158700    -14.56062    -15.52001    -13.97683    -13.87409 
    0.161059    -14.56182    -15.53105    -13.96494    -13.87409 
    0.163437    -14.55657    -15.56300    -13.97368    -13.87409 
    0.165831    -14.56160    -15.58593    -13.97327    -13.87409 
    0.168243    -14.55799    -15.55631    -13.92034    -13.87409 
    0.170673    -14.56440    -15.64883    -13.98928    -13.87409 
    0.173120    -14.56425    -15.61602    -13.93262    -13.87409 
    0.175584    -14.56600    -15.52018    -13.81279    -13.87409 
    0.178066    -14.56412    -15.44091    -13.70943    -13.87409 
    0.180565    -14.56446    -15.44067    -13.68503    -13.87409 
    0.183081    -14.56126    -15.49105    -13.71089    -13.87409 
    0.185615    -14.56215    -15.53734    -13.73246    -13.87409 
    0.188167    -14.55707    -15.54714    -13.71747    -13.87409 
    0.190736    -14.56398    -15.58095    -13.72623    -13.87409 
    0.193322    -14.56211    -15.59142    -13.71149    -13.87409 
    0.195925    -14.55995    -15.59930    -13.69403    -13.87409 
    0.198546    -14.55864    -15.56070    -13.62995    -13.87409 
    0.201185    -14.55948    -15.62478    -13.66845    -13.87409 
    0.203841    -14.56241    -15.64572    -13.66363    -13.87409 
    0.206514    -14.56096    -15.61456    -13.60638    -13.87409 
    0.209205    -14.56092    -15.68081    -13.64653    -13.87409 
    0.211913    -14.55771    -15.78921    -13.72864    -13.87409 
    0.214638    -14.55779    -15.62269    -13.53562    -13.87409 
    0.217381    -14.53882    -15.48256    -13.36866    -13.87409 
    0.220142    -14.44299    -15.37904    -13.23765    -13.87409 
    0.222920    -14.24835    -15.22008    -13.66246    -13.87409 
 
