# RELION postprocess; version 4.0-beta-2
# --mask mask.mrc --i output/_iter5_half1.mrc --i2 output/_iter5_half2.mrc --o output/_postprocess_iter5/iter5 --angpix 1.059 --auto_bfac --autob_lowres 10 

# version 30001

data_general

_rlnFinalResolution                               2.972632
_rlnBfactorUsedForSharpening                     -36.19465
_rlnUnfilteredMapHalf1                        output/_iter5_half1.mrc
_rlnUnfilteredMapHalf2                        output/_iter5_half2.mrc
_rlnPostprocessedMap                          output/_postprocess_iter5/iter5.mrc
_rlnParticleBoxFractionSolventMask               20.686732
_rlnMaskName                                  mask.mrc
_rlnRandomiseFrom                                 8.689231
_rlnPostprocessedMapMasked                    output/_postprocess_iter5/iter5_masked.mrc
_rlnFittedSlopeGuinierPlot                        -9.04866
_rlnFittedInterceptGuinierPlot                   -13.68153
_rlnCorrelationFitGuinierPlot                     0.879204
 

# version 30001

data_fsc

loop_ 
_rlnSpectralIndex #1 
_rlnResolution #2 
_rlnAngstromResolution #3 
_rlnFourierShellCorrelationCorrected #4 
_rlnFourierShellCorrelationParticleMaskFraction #5 
_rlnFourierShellCorrelationUnmaskedMaps #6 
_rlnFourierShellCorrelationMaskedMaps #7 
_rlnCorrectedFourierShellCorrelationPhaseRandomizedMaskedMaps #8 
           0     0.001001   999.000000     1.000000     1.000000     1.000000     1.000000     1.000000 
           1     0.002951   338.880005     0.999999     0.999977     0.999520     0.999999     0.999999 
           2     0.005902   169.440002     0.999994     0.999994     0.999875     0.999994     0.999994 
           3     0.008853   112.960002     0.999973     0.999903     0.997987     0.999973     0.999968 
           4     0.011804    84.720001     0.999991     0.999958     0.999140     0.999991     0.999989 
           5     0.014754    67.776001     0.999987     0.999961     0.999189     0.999987     0.999989 
           6     0.017705    56.480001     0.999956     0.999900     0.997937     0.999956     0.999959 
           7     0.020656    48.411429     0.999895     0.999843     0.996761     0.999895     0.999895 
           8     0.023607    42.360001     0.999844     0.999850     0.996902     0.999844     0.999840 
           9     0.026558    37.653334     0.999834     0.999832     0.996535     0.999834     0.999825 
          10     0.029509    33.888000     0.999725     0.999662     0.993054     0.999725     0.999718 
          11     0.032460    30.807273     0.999675     0.999736     0.994569     0.999675     0.999664 
          12     0.035411    28.240000     0.999731     0.999722     0.994281     0.999731     0.999721 
          13     0.038362    26.067693     0.999743     0.999657     0.992947     0.999743     0.999733 
          14     0.041313    24.205715     0.999550     0.999473     0.989201     0.999550     0.999552 
          15     0.044263    22.592000     0.999065     0.999169     0.983089     0.999065     0.999069 
          16     0.047214    21.180000     0.998377     0.998848     0.976696     0.998377     0.998342 
          17     0.050165    19.934118     0.997693     0.998228     0.964572     0.997693     0.997597 
          18     0.053116    18.826667     0.997366     0.997323     0.947402     0.997366     0.997231 
          19     0.056067    17.835790     0.997284     0.997412     0.949064     0.997284     0.997246 
          20     0.059018    16.944000     0.996925     0.996897     0.939499     0.996925     0.996893 
          21     0.061969    16.137143     0.996792     0.996652     0.935030     0.996792     0.996710 
          22     0.064920    15.403637     0.996568     0.996416     0.930743     0.996568     0.996539 
          23     0.067871    14.733913     0.996184     0.995423     0.913140     0.996184     0.996098 
          24     0.070822    14.120000     0.996289     0.995662     0.917320     0.996289     0.996194 
          25     0.073772    13.555200     0.996334     0.996296     0.928578     0.996334     0.996342 
          26     0.076723    13.033846     0.996489     0.996636     0.934737     0.996489     0.996490 
          27     0.079674    12.551111     0.996482     0.996822     0.938129     0.996482     0.996481 
          28     0.082625    12.102857     0.996028     0.996285     0.928381     0.996028     0.995989 
          29     0.085576    11.685517     0.995378     0.995785     0.919492     0.995378     0.995355 
          30     0.088527    11.296000     0.995550     0.995613     0.916455     0.995550     0.995444 
          31     0.091478    10.931613     0.995408     0.994897     0.904066     0.995408     0.995145 
          32     0.094429    10.590000     0.994959     0.994790     0.902257     0.994959     0.994718 
          33     0.097380    10.269091     0.994802     0.994705     0.900803     0.994802     0.994544 
          34     0.100330     9.967059     0.995024     0.994636     0.899636     0.995024     0.994647 
          35     0.103281     9.682286     0.994254     0.994007     0.889115     0.994254     0.993497 
          36     0.106232     9.413333     0.992686     0.992689     0.867783     0.992686     0.991250 
          37     0.109183     9.158919     0.990023     0.991512     0.849551     0.990023     0.986817 
          38     0.112134     8.917895     0.987316     0.989641     0.822007     0.987316     0.975994 
          39     0.115085     8.689231     0.985426     0.987364     0.790669     0.985426     0.943103 
          40     0.118036     8.472000     0.984127     0.985675     0.768852     0.984127     0.841834 
          41     0.120987     8.265366     0.945193     0.983246     0.739378     0.982264     0.676389 
          42     0.123938     8.068572     0.952921     0.981777     0.722553     0.980196     0.579339 
          43     0.126889     7.880930     0.949086     0.977313     0.675583     0.976361     0.535718 
          44     0.129839     7.701818     0.939671     0.972467     0.630636     0.971648     0.530041 
          45     0.132790     7.530667     0.932053     0.969856     0.608659     0.967481     0.521401 
          46     0.135741     7.366957     0.924525     0.961079     0.544142     0.961938     0.495694 
          47     0.138692     7.210213     0.921023     0.958577     0.528001     0.957520     0.462125 
          48     0.141643     7.060000     0.918663     0.955349     0.508423     0.952533     0.416409 
          49     0.144594     6.915918     0.919410     0.955782     0.510973     0.950281     0.383059 
          50     0.147545     6.777600     0.919221     0.955752     0.510799     0.948773     0.365831 
          51     0.150496     6.644706     0.913102     0.946776     0.462336     0.942728     0.340933 
          52     0.153447     6.516923     0.903888     0.942591     0.442490     0.933012     0.303025 
          53     0.156398     6.393962     0.899816     0.938656     0.425180     0.927820     0.279523 
          54     0.159348     6.275556     0.895697     0.933237     0.403238     0.924341     0.274618 
          55     0.162299     6.161455     0.894777     0.936035     0.414309     0.921187     0.250990 
          56     0.165250     6.051429     0.902560     0.936876     0.417746     0.923237     0.212199 
          57     0.168201     5.945263     0.905583     0.935660     0.412794     0.922598     0.180214 
          58     0.171152     5.842759     0.903766     0.936594     0.416586     0.918029     0.148213 
          59     0.174103     5.743729     0.898832     0.931147     0.395310     0.912068     0.130835 
          60     0.177054     5.648000     0.901659     0.934485     0.408112     0.914169     0.127212 
          61     0.180005     5.555410     0.902156     0.930780     0.393945     0.912785     0.108638 
          62     0.182956     5.465807     0.904529     0.935512     0.412199     0.913497     0.093943 
          63     0.185907     5.379048     0.909181     0.937975     0.422306     0.918569     0.103365 
          64     0.188857     5.295000     0.917930     0.945252     0.454929     0.926555     0.105098 
          65     0.191808     5.213539     0.920059     0.946989     0.463389     0.928103     0.100628 
          66     0.194759     5.134546     0.923030     0.949163     0.474386     0.930076     0.091542 
          67     0.197710     5.057911     0.928037     0.950751     0.482726     0.933195     0.071680 
          68     0.200661     4.983529     0.929085     0.949655     0.476941     0.933030     0.055622 
          69     0.203612     4.911304     0.929851     0.950312     0.480392     0.933432     0.051040 
          70     0.206563     4.841143     0.932056     0.949883     0.478135     0.935773     0.054711 
          71     0.209514     4.772958     0.931865     0.949797     0.477687     0.934731     0.042071 
          72     0.212465     4.706667     0.926734     0.946976     0.463328     0.928331     0.021795 
          73     0.215415     4.642192     0.921637     0.944579     0.451724     0.922170     0.006794 
          74     0.218366     4.579460     0.916334     0.938624     0.425044     0.917597     0.015103 
          75     0.221317     4.518400     0.912929     0.940412     0.432754     0.915346     0.027763 
          76     0.224268     4.458947     0.910886     0.932933     0.402068     0.912616     0.019412 
          77     0.227219     4.401039     0.903580     0.920017     0.357342     0.905535     0.020275 
          78     0.230170     4.344615     0.891132     0.916672     0.347163     0.892972     0.016900 
          79     0.233121     4.289620     0.876319     0.903100     0.310595     0.878113     0.014501 
          80     0.236072     4.236000     0.860635     0.897205     0.296725     0.861982     0.009664 
          81     0.239023     4.183704     0.849947     0.886469     0.274020     0.851373     0.009501 
          82     0.241974     4.132683     0.842325     0.878912     0.259738     0.842746     0.002671 
          83     0.244924     4.082892     0.827705     0.873715     0.250626     0.829010     0.007573 
          84     0.247875     4.034286     0.804077     0.858693     0.227055     0.807513     0.017540 
          85     0.250826     3.986824     0.782749     0.839661     0.202009     0.785776     0.013933 
          86     0.253777     3.940465     0.764674     0.826409     0.187079     0.765849     0.004992 
          87     0.256728     3.895172     0.746434     0.809273     0.170202     0.746657 8.787497e-04 
          88     0.259679     3.850909     0.719885     0.798421     0.160699     0.723526     0.013000 
          89     0.262630     3.807641     0.688188     0.790238     0.154057     0.692003     0.012234 
          90     0.265581     3.765333     0.656909     0.764096     0.135378     0.660702     0.011057 
          91     0.268532     3.723956     0.637367     0.764566     0.135683     0.639568     0.006069 
          92     0.271483     3.683478     0.618397     0.752825     0.128335     0.622189     0.009937 
          93     0.274433     3.643871     0.583870     0.688731     0.096625     0.590672     0.016347 
          94     0.277384     3.605106     0.553795     0.731740     0.116497     0.559782     0.013417 
          95     0.280335     3.567158     0.516882     0.721695     0.111391     0.522284     0.011182 
          96     0.283286     3.530000     0.480079     0.679039     0.092782     0.482530     0.004715 
          97     0.286237     3.493608     0.472894     0.710651     0.106125     0.472878 -3.04173e-05 
          98     0.289188     3.457959     0.458138     0.678534     0.092587     0.456244     -0.00350 
          99     0.292139     3.423030     0.408013     0.648957     0.082034     0.410137     0.003587 
         100     0.295090     3.388800     0.370749     0.658670     0.085324     0.379086     0.013249 
         101     0.298041     3.355248     0.362085     0.621819     0.073630     0.366686     0.007212 
         102     0.300991     3.322353     0.340268     0.599602     0.067503     0.343851     0.005431 
         103     0.303942     3.290097     0.286237     0.611020     0.070575     0.295212     0.012575 
         104     0.306893     3.258462     0.255366     0.605994     0.069204     0.267732     0.016607 
         105     0.309844     3.227429     0.235948     0.616590     0.072132     0.246485     0.013791 
         106     0.312795     3.196981     0.228362     0.560432     0.058054     0.234016     0.007326 
         107     0.315746     3.167103     0.207921     0.601012     0.067874     0.214756     0.008629 
         108     0.318697     3.137778     0.196142     0.561165     0.058217     0.197579     0.001788 
         109     0.321648     3.108991     0.200886     0.612412     0.070960     0.199662     -0.00153 
         110     0.324599     3.080727     0.190925     0.532483     0.052184     0.190362 -6.96260e-04 
         111     0.327550     3.052973     0.170272     0.522963     0.050327     0.169643 -7.57656e-04 
         112     0.330500     3.025714     0.179367     0.541115     0.053929     0.169036     -0.01259 
         113     0.333451     2.998938     0.168032     0.600780     0.067813     0.160673     -0.00884 
         114     0.336402     2.972632     0.145673     0.585398     0.063893     0.148207     0.002967 
         115     0.339353     2.946783     0.134865     0.592537     0.065680     0.143182     0.009613 
         116     0.342304     2.921379     0.116484     0.518287     0.049439     0.123743     0.008215 
         117     0.345255     2.896410     0.093651     0.517360     0.049265     0.102275     0.009514 
         118     0.348206     2.871864     0.098702     0.544256     0.054578     0.106404     0.008546 
         119     0.351157     2.847731     0.115145     0.516166     0.049041     0.118259     0.003520 
         120     0.354108     2.824000     0.118257     0.562638     0.058546     0.118847 6.691808e-04 
         121     0.357059     2.800661     0.095895     0.578179     0.062141     0.097487     0.001761 
         122     0.360009     2.777705     0.088765     0.557621     0.057434     0.083787     -0.00546 
         123     0.362960     2.755122     0.080675     0.512248     0.048315     0.072259     -0.00916 
         124     0.365911     2.732903     0.078460     0.527035     0.051113     0.072557     -0.00641 
         125     0.368862     2.711040     0.068332     0.523043     0.050342     0.066628     -0.00183 
         126     0.371813     2.689524     0.079599     0.520432     0.049844     0.072764     -0.00743 
         127     0.374764     2.668346     0.077095     0.525249     0.050767     0.073350     -0.00406 
         128     0.377715     2.647500     0.078606     0.504531     0.046915     0.080045     0.001563 
         129     0.380666     2.626977     0.081847     0.526422     0.050994     0.087681     0.006354 
         130     0.383617     2.606769     0.077167     0.562229     0.058454     0.083284     0.006628 
         131     0.386568     2.586870     0.067581     0.560477     0.058064     0.073924     0.006802 
         132     0.389518     2.567273     0.073735     0.521137     0.049978     0.079841     0.006593 
         133     0.392469     2.547970     0.069090     0.543710     0.054464     0.075393     0.006771 
         134     0.395420     2.528955     0.062287     0.535679     0.052823     0.067751     0.005826 
         135     0.398371     2.510222     0.075707     0.500783     0.046249     0.076619 9.868729e-04 
         136     0.401322     2.491765     0.079311     0.518702     0.049517     0.077969     -0.00146 
         137     0.404273     2.473577     0.080170     0.562374     0.058487     0.080468 3.236601e-04 
         138     0.407224     2.455652     0.076805     0.505356     0.047063     0.072889     -0.00424 
         139     0.410175     2.437986     0.070284     0.548982     0.055570     0.065603     -0.00504 
         140     0.413126     2.420571     0.054448     0.490693     0.044501     0.056365     0.002027 
         141     0.416076     2.403404     0.057876     0.504707     0.046946     0.061824     0.004191 
         142     0.419027     2.386479     0.080717     0.487559     0.043971     0.082839     0.002308 
         143     0.421978     2.369790     0.085276     0.495086     0.045254     0.082481     -0.00306 
         144     0.424929     2.353333     0.088786     0.451390     0.038252     0.084015     -0.00524 
         145     0.427880     2.337103     0.085503     0.511198     0.048122     0.082035     -0.00379 
         146     0.430831     2.321096     0.089243     0.488288     0.044093     0.086285     -0.00325 
         147     0.433782     2.305306     0.093044     0.514618     0.048753     0.080799     -0.01350 
         148     0.436733     2.289730     0.081903     0.440727     0.036696     0.069196     -0.01384 
         149     0.439684     2.274362     0.067110     0.466714     0.040589     0.064403     -0.00290 
         150     0.442635     2.259200     0.050388     0.513438     0.048535     0.053538     0.003317 
         151     0.445585     2.244238     0.053394     0.466355     0.040532     0.057715     0.004565 
         152     0.448536     2.229474     0.070046     0.495241     0.045281     0.067912     -0.00230 
         153     0.451487     2.214902     0.070009     0.465172     0.040348     0.065878     -0.00444 
         154     0.454438     2.200520     0.058992     0.445464     0.037381     0.057057     -0.00206 
         155     0.457389     2.186323     0.039041     0.458923     0.039386     0.044598     0.005783 
         156     0.460340     2.172308     0.038524     0.497157     0.045614     0.048756     0.010643 
         157     0.463291     2.158471     0.059300     0.480740     0.042837     0.066572     0.007731 
         158     0.466242     2.144810     0.066877     0.515272     0.048875     0.065626     -0.00134 
         159     0.469193     2.131321     0.063767     0.467894     0.040774     0.058518     -0.00561 
         160     0.472144     2.118000     0.065242     0.433677     0.035696     0.061901     -0.00357 
 

# version 30001

data_guinier

loop_ 
_rlnResolutionSquared #1 
_rlnLogAmplitudesOriginal #2 
_rlnLogAmplitudesWeighted #3 
_rlnLogAmplitudesSharpened #4 
_rlnLogAmplitudesIntercept #5 
    0.000000    -11.31769    -11.31769    -11.31769    -13.68153 
8.707793e-06     -9.09067     -9.09067     -9.09054    -13.68153 
3.483117e-05     -9.20214     -9.20214     -9.20175    -13.68153 
7.837014e-05    -10.33503    -10.33504    -10.33430    -13.68153 
1.393247e-04    -10.24271    -10.24271    -10.24137    -13.68153 
2.176948e-04    -10.44290    -10.44291    -10.44086    -13.68153 
3.134806e-04    -10.87512    -10.87513    -10.87215    -13.68153 
4.266819e-04    -11.19693    -11.19695    -11.19303    -13.68153 
5.572988e-04    -11.40924    -11.40928    -11.40422    -13.68153 
7.053313e-04    -11.51801    -11.51805    -11.51159    -13.68153 
8.707793e-04    -11.85210    -11.85217    -11.84417    -13.68153 
    0.001054    -11.93968    -11.93976    -11.93009    -13.68153 
    0.001254    -11.95810    -11.95817    -11.94676    -13.68153 
    0.001472    -12.16017    -12.16023    -12.14686    -13.68153 
    0.001707    -12.32216    -12.32227    -12.30670    -13.68153 
    0.001959    -12.43032    -12.43055    -12.41279    -13.68153 
    0.002229    -12.54231    -12.54271    -12.52255    -13.68153 
    0.002517    -12.72460    -12.72518    -12.70238    -13.68153 
    0.002821    -12.87857    -12.87923    -12.85355    -13.68153 
    0.003144    -12.86121    -12.86189    -12.83333    -13.68153 
    0.003483    -12.99279    -12.99356    -12.96202    -13.68153 
    0.003840    -13.10624    -13.10704    -13.07222    -13.68153 
    0.004215    -13.10051    -13.10137    -13.06311    -13.68153 
    0.004606    -13.08707    -13.08802    -13.04626    -13.68153 
    0.005016    -13.06000    -13.06093    -13.01549    -13.68153 
    0.005442    -13.02377    -13.02469    -12.97536    -13.68153 
    0.005886    -13.00744    -13.00832    -12.95493    -13.68153 
    0.006348    -12.99477    -12.99565    -12.93810    -13.68153 
    0.006827    -13.02553    -13.02652    -12.96464    -13.68153 
    0.007323    -13.10189    -13.10305    -13.03667    -13.68153 
    0.007837    -13.13971    -13.14083    -13.06982    -13.68153 
    0.008368    -13.18150    -13.18265    -13.10686    -13.68153 
    0.008917    -13.20179    -13.20306    -13.12230    -13.68153 
    0.009483    -13.19097    -13.19228    -13.10640    -13.68153 
    0.010066    -13.17345    -13.17469    -13.08351    -13.68153 
    0.010667    -13.22050    -13.22194    -13.12532    -13.68153 
    0.011285    -13.29067    -13.29250    -13.19033    -13.68153 
    0.011921    -13.36203    -13.36454    -13.25658    -13.68153 
    0.012574    -13.46127    -13.46447    -13.35061    -13.68153 
    0.013245    -13.54490    -13.54858    -13.42870    -13.68153 
    0.013932    -13.58413    -13.58814    -13.46202    -13.68153 
    0.014638    -13.63449    -13.64878    -13.51626    -13.68153 
    0.015361    -13.68429    -13.69649    -13.55744    -13.68153 
    0.016101    -13.77584    -13.78908    -13.64330    -13.68153 
    0.016858    -13.83171    -13.84751    -13.69488    -13.68153 
    0.017633    -13.86290    -13.88080    -13.72114    -13.68153 
    0.018426    -13.93842    -13.95843    -13.79161    -13.68153 
    0.019236    -13.97372    -13.99471    -13.82063    -13.68153 
    0.020063    -14.00287    -14.02453    -13.84295    -13.68153 
    0.020907    -13.99118    -14.01263    -13.82336    -13.68153 
    0.021769    -14.00921    -14.03071    -13.83361    -13.68153 
    0.022649    -14.05145    -14.07470    -13.86963    -13.68153 
    0.023546    -14.07467    -14.10057    -13.88740    -13.68153 
    0.024460    -14.07611    -14.10319    -13.88167    -13.68153 
    0.025392    -14.07260    -14.10089    -13.87094    -13.68153 
    0.026341    -14.05389    -14.08245    -13.84401    -13.68153 
    0.027308    -14.05309    -14.07938    -13.83226    -13.68153 
    0.028292    -14.05952    -14.08493    -13.82885    -13.68153 
    0.029293    -14.06000    -14.08594    -13.82076    -13.68153 
    0.030312    -14.06212    -14.08950    -13.81511    -13.68153 
    0.031348    -14.04026    -14.06681    -13.78305    -13.68153 
    0.032402    -14.02206    -14.04846    -13.75511    -13.68153 
    0.033473    -14.00346    -14.02918    -13.72612    -13.68153 
    0.034561    -13.98630    -14.01067    -13.69786    -13.68153 
    0.035667    -13.95145    -13.97332    -13.65057    -13.68153 
    0.036790    -13.92019    -13.94145    -13.60845    -13.68153 
    0.037931    -13.90129    -13.92172    -13.57832    -13.68153 
    0.039089    -13.88885    -13.90787    -13.55400    -13.68153 
    0.040265    -13.88148    -13.90021    -13.53572    -13.68153 
    0.041458    -13.87594    -13.89445    -13.51916    -13.68153 
    0.042668    -13.87378    -13.89168    -13.50539    -13.68153 
    0.043896    -13.86987    -13.88782    -13.49054    -13.68153 
    0.045141    -13.88374    -13.90312    -13.49459    -13.68153 
    0.046404    -13.88694    -13.90775    -13.48778    -13.68153 
    0.047684    -13.90545    -13.92777    -13.49617    -13.68153 
    0.048981    -13.91749    -13.94079    -13.49748    -13.68153 
    0.050296    -13.94996    -13.97384    -13.51860    -13.68153 
    0.051629    -13.95058    -13.97657    -13.50925    -13.68153 
    0.052978    -13.99569    -14.02533    -13.54587    -13.68153 
    0.054345    -14.03211    -14.06621    -13.57441    -13.68153 
    0.055730    -14.05038    -14.08931    -13.58499    -13.68153 
    0.057132    -14.06928    -14.11157    -13.59452    -13.68153 
    0.058551    -14.08112    -14.12586    -13.59593    -13.68153 
    0.059988    -14.08876    -14.13827    -13.59534    -13.68153 
    0.061442    -14.11065    -14.16813    -13.61207    -13.68153 
    0.062914    -14.13110    -14.19608    -13.62669    -13.68153 
    0.064403    -14.14635    -14.21792    -13.63499    -13.68153 
    0.065909    -14.16168    -14.24012    -13.64361    -13.68153 
    0.067433    -14.14973    -14.23862    -13.62835    -13.68153 
    0.068974    -14.16011    -14.26221    -13.63800    -13.68153 
    0.070533    -14.16495    -14.28096    -13.64262    -13.68153 
    0.072109    -14.16230    -14.28747    -13.63478    -13.68153 
    0.073703    -14.16712    -14.30158    -13.63448    -13.68153 
    0.075314    -14.19378    -14.34618    -13.66452    -13.68153 
    0.076942    -14.18691    -14.35617    -13.65981    -13.68153 
    0.078588    -14.19731    -14.38904    -13.67789    -13.68153 
    0.080251    -14.20714    -14.42351    -13.69737    -13.68153 
    0.081932    -14.20607    -14.42755    -13.68618    -13.68153 
    0.083630    -14.21528    -14.44758    -13.69069    -13.68153 
    0.085345    -14.23196    -14.50470    -13.73228    -13.68153 
    0.087078    -14.23546    -14.54268    -13.75461    -13.68153 
    0.088828    -14.23917    -14.55504    -13.75114    -13.68153 
    0.090596    -14.24261    -14.58148    -13.76156    -13.68153 
    0.092381    -14.24589    -14.65064    -13.81453    -13.68153 
    0.094183    -14.23815    -14.68782    -13.83546    -13.68153 
    0.096003    -14.24653    -14.72795    -13.85915    -13.68153 
    0.097841    -14.25732    -14.75199    -13.86647    -13.68153 
    0.099696    -14.24883    -14.78200    -13.87976    -13.68153 
    0.101568    -14.25995    -14.81738    -13.89828    -13.68153 
    0.103457    -14.25231    -14.79977    -13.86347    -13.68153 
    0.105364    -14.25231    -14.82104    -13.86742    -13.68153 
    0.107289    -14.25687    -14.87410    -13.90313    -13.68153 
    0.109231    -14.25560    -14.85068    -13.86225    -13.68153 
    0.111190    -14.24552    -14.86840    -13.86224    -13.68153 
    0.113166    -14.24592    -14.93054    -13.90640    -13.68153 
    0.115161    -14.24313    -14.96155    -13.91940    -13.68153 
    0.117172    -14.25802    -15.04154    -13.98121    -13.68153 
    0.119201    -14.24757    -15.12984    -14.05107    -13.68153 
    0.121247    -14.24848    -15.10680    -14.00949    -13.68153 
    0.123311    -14.25017    -15.03887    -13.92301    -13.68153 
    0.125392    -14.24904    -15.02580    -13.89111    -13.68153 
    0.127491    -14.25124    -15.12271    -13.96896    -13.68153 
    0.129607    -14.24816    -15.15499    -13.98206    -13.68153 
    0.131740    -14.24593    -15.19681    -14.00459    -13.68153 
    0.133891    -14.24543    -15.20920    -13.99756    -13.68153 
    0.136059    -14.24689    -15.27506    -14.04373    -13.68153 
    0.138245    -14.24610    -15.20320    -13.95208    -13.68153 
    0.140448    -14.24138    -15.21330    -13.94232    -13.68153 
    0.142668    -14.24910    -15.21202    -13.92099    -13.68153 
    0.144906    -14.24699    -15.19120    -13.87984    -13.68153 
    0.147162    -14.23395    -15.20543    -13.87364    -13.68153 
    0.149434    -14.23558    -15.26892    -13.91664    -13.68153 
    0.151725    -14.23677    -15.22941    -13.85637    -13.68153 
    0.154032    -14.23638    -15.25939    -13.86545    -13.68153 
    0.156357    -14.23670    -15.30834    -13.89336    -13.68153 
    0.158700    -14.23863    -15.21899    -13.78285    -13.68153 
    0.161059    -14.23610    -15.19487    -13.73741    -13.68153 
    0.163437    -14.23046    -15.18425    -13.70515    -13.68153 
    0.165831    -14.24023    -15.21390    -13.71311    -13.68153 
    0.168243    -14.22794    -15.24293    -13.72041    -13.68153 
    0.170673    -14.23312    -15.36831    -13.82389    -13.68153 
    0.173120    -14.23316    -15.33945    -13.77281    -13.68153 
    0.175584    -14.23759    -15.18823    -13.59927    -13.68153 
    0.178066    -14.23576    -15.16104    -13.54966    -13.68153 
    0.180565    -14.23296    -15.13969    -13.50582    -13.68153 
    0.183081    -14.23132    -15.15537    -13.49872    -13.68153 
    0.185615    -14.23317    -15.13754    -13.45785    -13.68153 
    0.188167    -14.22953    -15.11478    -13.41200    -13.68153 
    0.190736    -14.23409    -15.17799    -13.45189    -13.68153 
    0.193322    -14.22984    -15.26645    -13.51695    -13.68153 
    0.195925    -14.22555    -15.39756    -13.62444    -13.68153 
    0.198546    -14.23100    -15.37547    -13.57868    -13.68153 
    0.201185    -14.23181    -15.24839    -13.42780    -13.68153 
    0.203841    -14.23239    -15.24921    -13.40460    -13.68153 
    0.206514    -14.23473    -15.33199    -13.46310    -13.68153 
    0.209205    -14.23296    -15.52710    -13.63389    -13.68153 
    0.211913    -14.23115    -15.53172    -13.61407    -13.68153 
    0.214638    -14.22865    -15.32346    -13.38111    -13.68153 
    0.217381    -14.20465    -15.24289    -13.27560    -13.68153 
    0.220142    -14.11249    -15.17309    -13.18026    -13.68153 
    0.222920    -13.91920    -14.96906    -13.56305    -13.68153 
 
