# RELION postprocess; version 4.0-beta-2
# --mask mask.mrc --i output/_iter4_half1.mrc --i2 output/_iter4_half2.mrc --o output/_postprocess_iter4/iter4 --angpix 1.059 --auto_bfac --autob_lowres 10 

# version 30001

data_general

_rlnFinalResolution                               2.972632
_rlnBfactorUsedForSharpening                     -36.87870
_rlnUnfilteredMapHalf1                        output/_iter4_half1.mrc
_rlnUnfilteredMapHalf2                        output/_iter4_half2.mrc
_rlnPostprocessedMap                          output/_postprocess_iter4/iter4.mrc
_rlnParticleBoxFractionSolventMask               20.686732
_rlnMaskName                                  mask.mrc
_rlnRandomiseFrom                                 8.472000
_rlnPostprocessedMapMasked                    output/_postprocess_iter4/iter4_masked.mrc
_rlnFittedSlopeGuinierPlot                        -9.21967
_rlnFittedInterceptGuinierPlot                   -13.73551
_rlnCorrelationFitGuinierPlot                     0.877671
 

# version 30001

data_fsc

loop_ 
_rlnSpectralIndex #1 
_rlnResolution #2 
_rlnAngstromResolution #3 
_rlnFourierShellCorrelationCorrected #4 
_rlnFourierShellCorrelationParticleMaskFraction #5 
_rlnFourierShellCorrelationUnmaskedMaps #6 
_rlnFourierShellCorrelationMaskedMaps #7 
_rlnCorrectedFourierShellCorrelationPhaseRandomizedMaskedMaps #8 
           0     0.001001   999.000000     1.000000     1.000000     1.000000     1.000000     1.000000 
           1     0.002951   338.880005     1.000000     0.999985     0.999680     1.000000     1.000000 
           2     0.005902   169.440002     0.999999     0.999992     0.999838     0.999999     0.999999 
           3     0.008853   112.960002     0.999992     0.999929     0.998535     0.999992     0.999989 
           4     0.011804    84.720001     0.999988     0.999969     0.999365     0.999988     0.999988 
           5     0.014754    67.776001     0.999990     0.999968     0.999346     0.999990     0.999990 
           6     0.017705    56.480001     0.999967     0.999925     0.998442     0.999967     0.999962 
           7     0.020656    48.411429     0.999904     0.999871     0.997344     0.999904     0.999893 
           8     0.023607    42.360001     0.999833     0.999879     0.997503     0.999833     0.999826 
           9     0.026558    37.653334     0.999855     0.999863     0.997173     0.999855     0.999857 
          10     0.029509    33.888000     0.999798     0.999745     0.994754     0.999798     0.999804 
          11     0.032460    30.807273     0.999742     0.999793     0.995739     0.999742     0.999741 
          12     0.035411    28.240000     0.999774     0.999768     0.995226     0.999774     0.999771 
          13     0.038362    26.067693     0.999759     0.999716     0.994148     0.999759     0.999740 
          14     0.041313    24.205715     0.999577     0.999575     0.991271     0.999577     0.999566 
          15     0.044263    22.592000     0.999216     0.999329     0.986301     0.999216     0.999238 
          16     0.047214    21.180000     0.998667     0.999058     0.980875     0.998667     0.998692 
          17     0.050165    19.934118     0.998241     0.998429     0.968484     0.998241     0.998204 
          18     0.053116    18.826667     0.997919     0.997921     0.958679     0.997919     0.997856 
          19     0.056067    17.835790     0.997846     0.997887     0.958027     0.997846     0.997854 
          20     0.059018    16.944000     0.997425     0.997415     0.949122     0.997425     0.997381 
          21     0.061969    16.137143     0.997285     0.997077     0.942818     0.997285     0.997166 
          22     0.064920    15.403637     0.996767     0.996893     0.939437     0.996767     0.996790 
          23     0.067871    14.733913     0.996526     0.996323     0.929070     0.996526     0.996588 
          24     0.070822    14.120000     0.996997     0.996540     0.932994     0.996997     0.997044 
          25     0.073772    13.555200     0.997159     0.996932     0.940154     0.997159     0.997192 
          26     0.076723    13.033846     0.997182     0.997320     0.947341     0.997182     0.997226 
          27     0.079674    12.551111     0.997061     0.997408     0.948988     0.997061     0.997182 
          28     0.082625    12.102857     0.996724     0.996898     0.939522     0.996724     0.996820 
          29     0.085576    11.685517     0.996195     0.996473     0.931784     0.996195     0.996166 
          30     0.088527    11.296000     0.996116     0.996340     0.929375     0.996116     0.995953 
          31     0.091478    10.931613     0.995899     0.995730     0.918512     0.995899     0.995561 
          32     0.094429    10.590000     0.995521     0.995712     0.918193     0.995521     0.995282 
          33     0.097380    10.269091     0.995376     0.995672     0.917490     0.995376     0.995218 
          34     0.100330     9.967059     0.995613     0.995651     0.917123     0.995613     0.995390 
          35     0.103281     9.682286     0.995204     0.995106     0.907659     0.995204     0.994674 
          36     0.106232     9.413333     0.993918     0.994007     0.889110     0.993918     0.993100 
          37     0.109183     9.158919     0.991791     0.993066     0.873791     0.991791     0.990381 
          38     0.112134     8.917895     0.989538     0.991794     0.853850     0.989538     0.985976 
          39     0.115085     8.689231     0.988064     0.989546     0.820646     0.988064     0.976981 
          40     0.118036     8.472000     0.986753     0.987720     0.795418     0.986753     0.948028 
          41     0.120987     8.265366     0.984680     0.986918     0.784800     0.984680     0.855344 
          42     0.123938     8.068572     0.946612     0.984821     0.758243     0.983431     0.689653 
          43     0.126889     7.880930     0.952612     0.981823     0.723073     0.980633     0.591305 
          44     0.129839     7.701818     0.947639     0.978856     0.691161     0.977436     0.569074 
          45     0.132790     7.530667     0.942861     0.977474     0.677171     0.973992     0.544821 
          46     0.135741     7.366957     0.936351     0.970465     0.613659     0.968970     0.512480 
          47     0.138692     7.210213     0.929887     0.967686     0.591437     0.963850     0.484409 
          48     0.141643     7.060000     0.924696     0.965057     0.571749     0.958643     0.450802 
          49     0.144594     6.915918     0.925563     0.965372     0.574041     0.956406     0.414348 
          50     0.147545     6.777600     0.924719     0.963728     0.562242     0.954024     0.389273 
          51     0.150496     6.644706     0.916703     0.957604     0.521959     0.946764     0.360889 
          52     0.153447     6.516923     0.907799     0.954288     0.502277     0.938751     0.335701 
          53     0.156398     6.393962     0.904406     0.950667     0.482276     0.936092     0.331464 
          54     0.159348     6.275556     0.902526     0.948066     0.468781     0.933192     0.314606 
          55     0.162299     6.161455     0.902622     0.942641     0.442717     0.929511     0.276129 
          56     0.165250     6.051429     0.909813     0.943874     0.448409     0.930940     0.234261 
          57     0.168201     5.945263     0.912152     0.943728     0.447730     0.930911     0.213539 
          58     0.171152     5.842759     0.908973     0.942451     0.441853     0.927200     0.200239 
          59     0.174103     5.743729     0.905229     0.938361     0.423931     0.922497     0.182204 
          60     0.177054     5.648000     0.909265     0.940400     0.432699     0.923434     0.156163 
          61     0.180005     5.555410     0.909827     0.938204     0.423272     0.921840     0.133226 
          62     0.182956     5.465807     0.911986     0.941780     0.438821     0.922847     0.123394 
          63     0.185907     5.379048     0.917840     0.944795     0.452745     0.927343     0.115666 
          64     0.188857     5.295000     0.928306     0.950247     0.480053     0.935678     0.102826 
          65     0.191808     5.213539     0.931310     0.952505     0.492248     0.937486     0.089911 
          66     0.194759     5.134546     0.934559     0.953751     0.499218     0.939474     0.075114 
          67     0.197710     5.057911     0.937716     0.955379     0.508604     0.941409     0.059296 
          68     0.200661     4.983529     0.938563     0.954633     0.504264     0.941570     0.048950 
          69     0.203612     4.911304     0.937669     0.955175     0.507409     0.941479     0.061122 
          70     0.206563     4.841143     0.938555     0.955373     0.508567     0.942366     0.062030 
          71     0.209514     4.772958     0.937764     0.955152     0.507273     0.940648     0.046344 
          72     0.212465     4.706667     0.932502     0.951712     0.487899     0.934704     0.032624 
          73     0.215415     4.642192     0.927436     0.948341     0.470177     0.929358     0.026488 
          74     0.218366     4.579460     0.921904     0.943399     0.446201     0.924352     0.031347 
          75     0.221317     4.518400     0.918724     0.945822     0.457673     0.921200     0.030461 
          76     0.224268     4.458947     0.916435     0.938390     0.424057     0.918125     0.020220 
          77     0.227219     4.401039     0.911054     0.926984     0.380310     0.912641     0.017848 
          78     0.230170     4.344615     0.900787     0.924486     0.371785     0.902011     0.012332 
          79     0.233121     4.289620     0.885846     0.911809     0.333240     0.887848     0.017543 
          80     0.236072     4.236000     0.867987     0.908536     0.324405     0.871613     0.027472 
          81     0.239023     4.183704     0.856127     0.892573     0.286550     0.860908     0.033232 
          82     0.241974     4.132683     0.847439     0.884229     0.269652     0.851126     0.024167 
          83     0.244924     4.082892     0.837322     0.884001     0.269213     0.839158     0.011283 
          84     0.247875     4.034286     0.818093     0.866967     0.239560     0.819916     0.010020 
          85     0.250826     3.986824     0.795624     0.850300     0.215424     0.798016     0.011700 
          86     0.253777     3.940465     0.772378     0.837211     0.199109     0.776825     0.019536 
          87     0.256728     3.895172     0.752493     0.814086     0.174695     0.757076     0.018514 
          88     0.259679     3.850909     0.733865     0.803082     0.164678     0.740062     0.023287 
          89     0.262630     3.807641     0.702780     0.807268     0.168382     0.711794     0.030327 
          90     0.265581     3.765333     0.667359     0.771859     0.140559     0.677820     0.031447 
          91     0.268532     3.723956     0.642300     0.772433     0.140954     0.653921     0.032486 
          92     0.271483     3.683478     0.632192     0.769742     0.139118     0.643497     0.030735 
          93     0.274433     3.643871     0.609591     0.719258     0.110199     0.618422     0.022620 
          94     0.277384     3.605106     0.571232     0.740415     0.121173     0.577848     0.015428 
          95     0.280335     3.567158     0.524088     0.727548     0.114328     0.533270     0.019294 
          96     0.283286     3.530000     0.490372     0.703326     0.102817     0.501879     0.022580 
          97     0.286237     3.493608     0.483511     0.715139     0.108223     0.494424     0.021128 
          98     0.289188     3.457959     0.457709     0.684616     0.094968     0.470407     0.023415 
          99     0.292139     3.423030     0.412431     0.666244     0.088004     0.428390     0.027160 
         100     0.295090     3.388800     0.392307     0.672375     0.090253     0.406197     0.022857 
         101     0.298041     3.355248     0.381330     0.644430     0.080554     0.390514     0.014844 
         102     0.300991     3.322353     0.358382     0.635051     0.077591     0.369154     0.016789 
         103     0.303942     3.290097     0.308954     0.617084     0.072272     0.321703     0.018449 
         104     0.306893     3.258462     0.279921     0.621938     0.073665     0.288752     0.012265 
         105     0.309844     3.227429     0.258553     0.657091     0.084778     0.268319     0.013171 
         106     0.312795     3.196981     0.244802     0.577796     0.062050     0.253894     0.012039 
         107     0.315746     3.167103     0.238688     0.623919     0.074242     0.235047     -0.00478 
         108     0.318697     3.137778     0.233789     0.584862     0.063761     0.224932     -0.01156 
         109     0.321648     3.108991     0.220969     0.602701     0.068322     0.225462     0.005767 
         110     0.324599     3.080727     0.189882     0.527993     0.051300     0.206751     0.020824 
         111     0.327550     3.052973     0.174550     0.529655     0.051626     0.185585     0.013368 
         112     0.330500     3.025714     0.174364     0.562761     0.058573     0.184494     0.012270 
         113     0.333451     2.998938     0.171323     0.618822     0.072767     0.180410     0.010965 
         114     0.336402     2.972632     0.152455     0.595434     0.066421     0.162768     0.012169 
         115     0.339353     2.946783     0.142295     0.605571     0.069089     0.149510     0.008412 
         116     0.342304     2.921379     0.121421     0.553797     0.056601     0.122858     0.001635 
         117     0.345255     2.896410     0.101606     0.527163     0.051138     0.095421     -0.00688 
         118     0.348206     2.871864     0.099474     0.546880     0.055126     0.096864     -0.00290 
         119     0.351157     2.847731     0.103330     0.535589     0.052805     0.106145     0.003140 
         120     0.354108     2.824000     0.111134     0.538637     0.053422     0.113168     0.002289 
         121     0.357059     2.800661     0.108302     0.584955     0.063784     0.107095     -0.00135 
         122     0.360009     2.777705     0.101676     0.557543     0.057416     0.101003 -7.48210e-04 
         123     0.362960     2.755122     0.096526     0.518010     0.049387     0.094354     -0.00240 
         124     0.365911     2.732903     0.093598     0.516546     0.049112     0.086394     -0.00795 
         125     0.368862     2.711040     0.076325     0.528258     0.051352     0.071443     -0.00529 
         126     0.371813     2.689524     0.066832     0.522876     0.050310     0.069703     0.003076 
         127     0.374764     2.668346     0.079745     0.538586     0.053411     0.078967 -8.44856e-04 
         128     0.377715     2.647500     0.090256     0.553039     0.056437     0.086012     -0.00467 
         129     0.380666     2.626977     0.092386     0.558494     0.057625     0.090380     -0.00221 
         130     0.383617     2.606769     0.084304     0.579651     0.062494     0.088342     0.004410 
         131     0.386568     2.586870     0.078410     0.581391     0.062914     0.084913     0.007057 
         132     0.389518     2.567273     0.080509     0.501214     0.046325     0.086684     0.006715 
         133     0.392469     2.547970     0.073300     0.554802     0.056818     0.079677     0.006881 
         134     0.395420     2.528955     0.065728     0.571276     0.060516     0.073548     0.008370 
         135     0.398371     2.510222     0.086203     0.525747     0.050863     0.091012     0.005263 
         136     0.401322     2.491765     0.096251     0.524277     0.050579     0.096912 7.312187e-04 
         137     0.404273     2.473577     0.099620     0.566630     0.059447     0.092535     -0.00787 
         138     0.407224     2.455652     0.083124     0.526335     0.050977     0.081894     -0.00134 
         139     0.410175     2.437986     0.070796     0.563310     0.058697     0.075494     0.005056 
         140     0.413126     2.420571     0.062944     0.490006     0.044384     0.065847     0.003097 
         141     0.416076     2.403404     0.066659     0.511967     0.048263     0.066640 -2.07725e-05 
         142     0.419027     2.386479     0.085195     0.479208     0.042586     0.084312 -9.65245e-04 
         143     0.421978     2.369790     0.086275     0.488024     0.044049     0.082757     -0.00385 
         144     0.424929     2.353333     0.090402     0.473487     0.041661     0.081389     -0.00991 
         145     0.427880     2.337103     0.085062     0.562197     0.058447     0.076933     -0.00888 
         146     0.430831     2.321096     0.093386     0.508852     0.047694     0.081263     -0.01337 
         147     0.433782     2.305306     0.091190     0.510296     0.047957     0.080179     -0.01212 
         148     0.436733     2.289730     0.081939     0.456001     0.038943     0.071873     -0.01096 
         149     0.439684     2.274362     0.071404     0.461475     0.039776     0.062728     -0.00934 
         150     0.442635     2.259200     0.060917     0.510696     0.048030     0.055684     -0.00557 
         151     0.445585     2.244238     0.067047     0.494376     0.045132     0.066221 -8.85460e-04 
         152     0.448536     2.229474     0.071302     0.492733     0.044849     0.070819 -5.20291e-04 
         153     0.451487     2.214902     0.066802     0.470493     0.041184     0.067041 2.561087e-04 
         154     0.454438     2.200520     0.059411     0.469382     0.041008     0.057495     -0.00204 
         155     0.457389     2.186323     0.047935     0.478563     0.042481     0.049895     0.002058 
         156     0.460340     2.172308     0.040466     0.514549     0.048740     0.047642     0.007479 
         157     0.463291     2.158471     0.056504     0.487412     0.043946     0.062528     0.006385 
         158     0.466242     2.144810     0.075059     0.518075     0.049399     0.072118     -0.00318 
         159     0.469193     2.131321     0.073677     0.493786     0.045030     0.071040     -0.00285 
         160     0.472144     2.118000     0.071075     0.458156     0.039269     0.070753 -3.47016e-04 
 

# version 30001

data_guinier

loop_ 
_rlnResolutionSquared #1 
_rlnLogAmplitudesOriginal #2 
_rlnLogAmplitudesWeighted #3 
_rlnLogAmplitudesSharpened #4 
_rlnLogAmplitudesIntercept #5 
    0.000000    -11.38900    -11.38900    -11.38900    -13.73551 
8.707793e-06     -9.08960     -9.08960     -9.08947    -13.73551 
3.483117e-05     -9.20480     -9.20480     -9.20441    -13.73551 
7.837014e-05    -10.33287    -10.33288    -10.33212    -13.73551 
1.393247e-04    -10.24520    -10.24520    -10.24383    -13.73551 
2.176948e-04    -10.44591    -10.44591    -10.44383    -13.73551 
3.134806e-04    -10.87402    -10.87403    -10.87099    -13.73551 
4.266819e-04    -11.19855    -11.19857    -11.19458    -13.73551 
5.572988e-04    -11.41319    -11.41323    -11.40808    -13.73551 
7.053313e-04    -11.52359    -11.52363    -11.51705    -13.73551 
8.707793e-04    -11.85774    -11.85779    -11.84964    -13.73551 
    0.001054    -11.94116    -11.94122    -11.93137    -13.73551 
    0.001254    -11.96222    -11.96228    -11.95066    -13.73551 
    0.001472    -12.16422    -12.16428    -12.15065    -13.73551 
    0.001707    -12.33047    -12.33058    -12.31471    -13.73551 
    0.001959    -12.43310    -12.43330    -12.41520    -13.73551 
    0.002229    -12.55045    -12.55078    -12.53024    -13.73551 
    0.002517    -12.73532    -12.73576    -12.71253    -13.73551 
    0.002821    -12.88284    -12.88336    -12.85720    -13.73551 
    0.003144    -12.86770    -12.86824    -12.83915    -13.73551 
    0.003483    -13.00254    -13.00318    -12.97105    -13.73551 
    0.003840    -13.11894    -13.11962    -13.08414    -13.73551 
    0.004215    -13.11216    -13.11297    -13.07399    -13.73551 
    0.004606    -13.09959    -13.10046    -13.05791    -13.73551 
    0.005016    -13.06811    -13.06886    -13.02256    -13.73551 
    0.005442    -13.03266    -13.03337    -12.98311    -13.73551 
    0.005886    -13.01782    -13.01853    -12.96413    -13.73551 
    0.006348    -13.01279    -13.01353    -12.95488    -13.73551 
    0.006827    -13.04271    -13.04353    -12.98047    -13.73551 
    0.007323    -13.11467    -13.11562    -13.04798    -13.73551 
    0.007837    -13.15334    -13.15431    -13.08196    -13.73551 
    0.008368    -13.19525    -13.19628    -13.11906    -13.73551 
    0.008917    -13.20599    -13.20711    -13.12482    -13.73551 
    0.009483    -13.19880    -13.19996    -13.11246    -13.73551 
    0.010066    -13.18192    -13.18302    -13.09011    -13.73551 
    0.010667    -13.22709    -13.22829    -13.12983    -13.73551 
    0.011285    -13.29913    -13.30066    -13.19656    -13.73551 
    0.011921    -13.37080    -13.37287    -13.26287    -13.73551 
    0.012574    -13.47874    -13.48137    -13.36536    -13.73551 
    0.013245    -13.56398    -13.56699    -13.44484    -13.73551 
    0.013932    -13.60565    -13.60899    -13.48048    -13.73551 
    0.014638    -13.65225    -13.65612    -13.52110    -13.73551 
    0.015361    -13.71399    -13.72789    -13.58620    -13.73551 
    0.016101    -13.79479    -13.80708    -13.65853    -13.73551 
    0.016858    -13.83383    -13.84745    -13.69194    -13.73551 
    0.017633    -13.86300    -13.87793    -13.71526    -13.73551 
    0.018426    -13.94613    -13.96284    -13.79288    -13.73551 
    0.019236    -13.98576    -14.00426    -13.82689    -13.73551 
    0.020063    -14.01415    -14.03410    -13.84908    -13.73551 
    0.020907    -14.00515    -14.02486    -13.83202    -13.73551 
    0.021769    -14.03152    -14.05147    -13.85065    -13.73551 
    0.022649    -14.07741    -14.09962    -13.89069    -13.73551 
    0.023546    -14.10245    -14.12721    -13.91003    -13.73551 
    0.024460    -14.10871    -14.13446    -13.90875    -13.73551 
    0.025392    -14.10736    -14.13366    -13.89938    -13.73551 
    0.026341    -14.12631    -14.15258    -13.90964    -13.73551 
    0.027308    -14.12933    -14.15352    -13.90172    -13.73551 
    0.028292    -14.13298    -14.15649    -13.89557    -13.73551 
    0.029293    -14.13926    -14.16369    -13.89349    -13.73551 
    0.030312    -14.14364    -14.16915    -13.88959    -13.73551 
    0.031348    -14.12340    -14.14775    -13.85861    -13.73551 
    0.032402    -14.10351    -14.12770    -13.82879    -13.73551 
    0.033473    -14.08650    -14.11006    -13.80127    -13.73551 
    0.034561    -14.06721    -14.08910    -13.77037    -13.73551 
    0.035667    -14.03036    -14.04930    -13.72045    -13.73551 
    0.036790    -13.99691    -14.01502    -13.67573    -13.73551 
    0.037931    -13.97758    -13.99478    -13.64490    -13.73551 
    0.039089    -13.96688    -13.98321    -13.62266    -13.73551 
    0.040265    -13.96057    -13.97667    -13.60530    -13.73551 
    0.041458    -13.95363    -13.96998    -13.58759    -13.73551 
    0.042668    -13.95181    -13.96791    -13.57431    -13.73551 
    0.043896    -13.94661    -13.96293    -13.55813    -13.73551 
    0.045141    -13.96191    -13.97969    -13.56345    -13.73551 
    0.046404    -13.96995    -13.98913    -13.56122    -13.73551 
    0.047684    -13.99070    -14.01144    -13.57170    -13.73551 
    0.048981    -13.99427    -14.01591    -13.56422    -13.73551 
    0.050296    -14.03248    -14.05477    -13.59093    -13.73551 
    0.051629    -14.03783    -14.06166    -13.58550    -13.73551 
    0.052978    -14.08158    -14.10838    -13.61985    -13.73551 
    0.054345    -14.12232    -14.15354    -13.65244    -13.73551 
    0.055730    -14.13672    -14.17337    -13.65953    -13.73551 
    0.057132    -14.16275    -14.20309    -13.67626    -13.73551 
    0.058551    -14.17414    -14.21724    -13.67729    -13.73551 
    0.059988    -14.18012    -14.22648    -13.67329    -13.73551 
    0.061442    -14.20458    -14.25729    -13.69072    -13.73551 
    0.062914    -14.22403    -14.28445    -13.70431    -13.73551 
    0.064403    -14.24818    -14.31691    -13.72298    -13.73551 
    0.065909    -14.26721    -14.34334    -13.73555    -13.73551 
    0.067433    -14.24851    -14.33182    -13.71002    -13.73551 
    0.068974    -14.25694    -14.35285    -13.71684    -13.73551 
    0.070533    -14.26726    -14.37852    -13.72811    -13.73551 
    0.072109    -14.26836    -14.39118    -13.72617    -13.73551 
    0.073703    -14.26812    -14.39579    -13.71608    -13.73551 
    0.075314    -14.29481    -14.43371    -13.73918    -13.73551 
    0.076942    -14.28932    -14.44866    -13.73913    -13.73551 
    0.078588    -14.30290    -14.49007    -13.76547    -13.73551 
    0.080251    -14.31202    -14.52125    -13.78139    -13.73551 
    0.081932    -14.31180    -14.52578    -13.77038    -13.73551 
    0.083630    -14.32312    -14.55574    -13.78455    -13.73551 
    0.085345    -14.33487    -14.60380    -13.81678    -13.73551 
    0.087078    -14.34215    -14.62891    -13.82595    -13.73551 
    0.088828    -14.34400    -14.64100    -13.82190    -13.73551 
    0.090596    -14.34945    -14.66910    -13.83369    -13.73551 
    0.092381    -14.35177    -14.72710    -13.87518    -13.73551 
    0.094183    -14.34668    -14.76013    -13.89167    -13.73551 
    0.096003    -14.35272    -14.79745    -13.91222    -13.73551 
    0.097841    -14.36643    -14.83300    -13.93072    -13.73551 
    0.099696    -14.35959    -14.83634    -13.91705    -13.73551 
    0.101568    -14.36648    -14.85162    -13.91516    -13.73551 
    0.103457    -14.36580    -14.87392    -13.91994    -13.73551 
    0.105364    -14.36313    -14.93416    -13.96253    -13.73551 
    0.107289    -14.36847    -14.97511    -13.98579    -13.73551 
    0.109231    -14.36487    -14.97197    -13.96486    -13.73551 
    0.111190    -14.35442    -14.96901    -13.94382    -13.73551 
    0.113166    -14.35784    -15.02265    -13.97917    -13.73551 
    0.115161    -14.35431    -15.04918    -13.98732    -13.73551 
    0.117172    -14.36224    -15.12721    -14.04684    -13.73551 
    0.119201    -14.35381    -15.19894    -14.09979    -13.73551 
    0.121247    -14.35710    -15.21187    -14.09380    -13.73551 
    0.123311    -14.35792    -15.19543    -14.05847    -13.73551 
    0.125392    -14.36292    -15.16755    -14.01142    -13.73551 
    0.127491    -14.35807    -15.17433    -13.99879    -13.73551 
    0.129607    -14.35814    -15.20297    -14.00789    -13.73551 
    0.131740    -14.35903    -15.22751    -14.01276    -13.73551 
    0.133891    -14.35723    -15.23977    -14.00522    -13.73551 
    0.136059    -14.35761    -15.33419    -14.07960    -13.73551 
    0.138245    -14.35606    -15.39462    -14.11984    -13.73551 
    0.140448    -14.35009    -15.30635    -14.01134    -13.73551 
    0.142668    -14.35351    -15.25269    -13.93725    -13.73551 
    0.144906    -14.35032    -15.23882    -13.90269    -13.73551 
    0.147162    -14.34466    -15.27522    -13.91828    -13.73551 
    0.149434    -14.34661    -15.31068    -13.93285    -13.73551 
    0.151725    -14.34974    -15.30158    -13.90259    -13.73551 
    0.154032    -14.34546    -15.34085    -13.92054    -13.73551 
    0.156357    -14.34465    -15.39102    -13.94928    -13.73551 
    0.158700    -14.34786    -15.26815    -13.80489    -13.73551 
    0.161059    -14.34428    -15.21405    -13.72904    -13.73551 
    0.163437    -14.33930    -15.19340    -13.68634    -13.73551 
    0.165831    -14.34601    -15.28307    -13.75391    -13.73551 
    0.168243    -14.33783    -15.34944    -13.79816    -13.73551 
    0.170673    -14.34506    -15.41176    -13.83815    -13.73551 
    0.173120    -14.34213    -15.38191    -13.78564    -13.73551 
    0.175584    -14.34388    -15.26959    -13.65060    -13.73551 
    0.178066    -14.34662    -15.26653    -13.62471    -13.73551 
    0.180565    -14.34425    -15.24269    -13.57794    -13.73551 
    0.183081    -14.33657    -15.26300    -13.57504    -13.73551 
    0.185615    -14.33962    -15.22319    -13.51176    -13.73551 
    0.188167    -14.33887    -15.23334    -13.49839    -13.73551 
    0.190736    -14.34541    -15.28911    -13.53041    -13.73551 
    0.193322    -14.34308    -15.35069    -13.56812    -13.73551 
    0.195925    -14.33593    -15.41805    -13.61143    -13.73551 
    0.198546    -14.33899    -15.37604    -13.54528    -13.73551 
    0.201185    -14.34048    -15.34876    -13.49375    -13.73551 
    0.203841    -14.34187    -15.38064    -13.50119    -13.73551 
    0.206514    -14.34460    -15.43852    -13.53433    -13.73551 
    0.209205    -14.34319    -15.53898    -13.60999    -13.73551 
    0.211913    -14.34009    -15.61699    -13.66311    -13.73551 
    0.214638    -14.33735    -15.45498    -13.47593    -13.73551 
    0.217381    -14.31790    -15.30225    -13.29777    -13.73551 
    0.220142    -14.22202    -15.21503    -13.18452    -13.73551 
    0.222920    -14.02780    -15.03757    -13.59333    -13.73551 
 
